#Acq. time (s)=	0.9
#Accumulations=	20
#Range (nm)=	337...345
#Windows=	1
#Auto scanning=	Off
#Autofocus=	Off
#AutoExposure=	Off
#Spike filter=	Off
#Delay time (s)=	0
#Binning=	1
#Readout mode=	Signal
#DeNoise=	Off
#ICS correction=	Off
#Dark correction=	Off
#Inst. Process=	Off
#Detector temperature (°C)=	-75.38
#Instrument=	OSD
#Detector=	Synapse
#Grating=	2400
#Front entrance slit=	20
#Exit mirror=	Side
#Full time(mm:ss)=	4:00
#Project=	
#Sample=	
#Site=	
#Title=	W_Ar_DC_3Pa_1493W_439V_3_4A
#Remark=	
#Date=	10.12.2019 10:14
#Acquired=	10.12.2019 10:14:42
337.027	11004.8
337.032	11232.6
337.037	7931.3
337.042	4157.8
337.046	4804.2
337.051	11310.8
337.056	16794.7
337.061	11406.4
337.066	3905.4
337.071	1306.8
337.076	830.3
337.081	761.2
337.086	744.1
337.091	731.5
337.095	718.3
337.1	708.7
337.105	706.8
337.11	708.6
337.115	712.5
337.12	710.2
337.125	710.8
337.13	746.2
337.135	839.7
337.14	922
337.144	894.1
337.149	838.2
337.154	818.5
337.159	764.8
337.164	720.6
337.169	702.9
337.174	714.6
337.179	792.8
337.184	992.5
337.189	1146.1
337.193	968.5
337.198	770.4
337.203	718
337.208	708
337.213	705
337.218	704.3
337.223	717.3
337.228	749.3
337.233	834
337.238	1033.4
337.242	1306.6
337.247	1271.1
337.252	968.6
337.257	868.9
337.262	1044.1
337.267	1451.3
337.272	1610.9
337.277	1823.5
337.282	3913.7
337.287	12825.5
337.291	36044.8
337.296	49199.8
337.301	32964.9
337.306	9627
337.311	2343.8
337.316	1061.7
337.321	879.5
337.326	875.3
337.331	861.3
337.336	796.9
337.34	741.6
337.345	723.5
337.35	715.4
337.355	710.5
337.36	717.9
337.365	738.1
337.37	797
337.375	862.5
337.38	828.2
337.385	746.7
337.389	727.5
337.394	795.7
337.399	978.2
337.404	1204.7
337.409	1213.7
337.414	989.9
337.419	966.5
337.424	1580
337.429	3199.1
337.434	3938.5
337.438	2373.4
337.443	1123.7
337.448	869.7
337.453	974.4
337.458	1069.2
337.463	887.8
337.468	709.3
337.473	661.3
337.478	661.7
337.482	662.4
337.487	660.3
337.492	653.9
337.497	653.8
337.502	656.8
337.507	660.3
337.512	666.7
337.517	704.5
337.522	844.9
337.527	1458.3
337.531	2813.9
337.536	3237.2
337.541	1928.2
337.546	1051.7
337.551	1031.5
337.556	1931
337.561	4453.2
337.566	5434.6
337.571	2812.4
337.576	1089.4
337.58	725.4
337.585	665.3
337.59	656.8
337.595	670.6
337.6	741.8
337.605	997.6
337.61	1282.1
337.615	1111.2
337.62	775.8
337.624	659.2
337.629	641.1
337.634	641.6
337.639	655.2
337.644	680.7
337.649	680.8
337.654	650.7
337.659	636.8
337.664	610
337.669	638.6
337.673	640.2
337.678	642.9
337.683	637.7
337.688	636.1
337.693	634.4
337.698	634.5
337.703	637.3
337.708	635.4
337.713	633.9
337.717	634.1
337.722	637.3
337.727	641.5
337.732	645
337.737	641.4
337.742	633.8
337.747	639.9
337.752	653.1
337.757	705.5
337.762	883.5
337.766	1292
337.771	1744.1
337.776	1549.4
337.781	1031.7
337.786	844.2
337.791	870.8
337.796	860.6
337.801	775.2
337.806	760.7
337.811	782.4
337.815	894.2
337.82	1218.1
337.825	1588.4
337.83	1657.9
337.835	1248.3
337.84	851.7
337.845	780.9
337.85	770.3
337.855	708.3
337.859	679.9
337.864	704
337.869	748.9
337.874	849.9
337.879	904.7
337.884	781.7
337.889	688.7
337.894	683
337.899	681.4
337.904	667.5
337.908	653.5
337.913	657
337.918	706.9
337.923	781.7
337.928	775.3
337.933	691.2
337.938	641.1
337.943	629.1
337.948	628.1
337.952	625.6
337.957	626.7
337.962	627.1
337.967	626.9
337.972	627.7
337.977	634.8
337.982	655.7
337.987	706.8
337.992	709.6
337.997	661.1
338.001	638.8
338.006	644.2
338.011	658.9
338.016	664.3
338.021	682.1
338.026	688.3
338.031	659.1
338.036	635.7
338.041	630.6
338.045	632.5
338.05	641.2
338.055	652.7
338.06	661.9
338.065	705.9
338.07	779
338.075	748.4
338.08	739.4
338.085	996.5
338.09	1648.1
338.094	1889.1
338.099	1245.4
338.104	771
338.109	662.9
338.114	668
338.119	762.9
338.124	1111.7
338.129	1526.6
338.134	1321.8
338.138	868.9
338.143	726.7
338.148	703.6
338.153	687.8
338.158	721.5
338.163	758.4
338.168	826.9
338.173	1283.1
338.178	2286.3
338.182	2476.6
338.187	1461.3
338.192	807.9
338.197	661.2
338.202	637.2
338.207	635.8
338.212	636.9
338.217	651.9
338.222	701.6
338.227	760.4
338.231	734.5
338.236	663.8
338.241	643.8
338.246	651.1
338.251	646.7
338.256	638.9
338.261	637.8
338.266	650.8
338.271	701.8
338.275	769.9
338.28	746.1
338.285	676.8
338.29	648.9
338.295	637.6
338.3	641.2
338.305	658.1
338.31	671.1
338.315	688.7
338.319	682.3
338.324	654.4
338.329	645.8
338.334	664
338.339	744.6
338.344	1100.8
338.349	2188.3
338.354	3043.9
338.359	2154.6
338.363	1067.8
338.368	720.1
338.373	654.3
338.378	644.4
338.383	657.3
338.388	704.6
338.393	761.5
338.398	782
338.403	966.3
338.407	1311.8
338.412	1241.6
338.417	858.9
338.422	678.2
338.427	643.1
338.432	637
338.437	635.4
338.442	637
338.447	635.6
338.451	641.8
338.456	648.1
338.461	647
338.466	643.6
338.471	661.2
338.476	718
338.481	768.3
338.486	749.7
338.491	797.5
338.495	1196.7
338.5	1757.4
338.505	1580.4
338.51	1004.8
338.515	956.4
338.52	1827.1
338.525	4417.6
338.53	6208.5
338.535	4036
338.54	1516.7
338.544	787.4
338.549	666.9
338.554	649.5
338.559	657.8
338.564	681.1
338.569	711.5
338.574	687
338.579	650
338.584	641
338.588	652.4
338.593	704
338.598	751.7
338.603	716.4
338.608	672.7
338.613	663.1
338.618	652.2
338.623	642.3
338.628	649.6
338.632	655.8
338.637	649
338.642	639.7
338.647	648.6
338.652	701.4
338.657	818.5
338.662	884.5
338.667	898.3
338.672	903.4
338.676	859.6
338.681	837.2
338.686	742
338.691	664.9
338.696	640
338.701	640.9
338.706	661.6
338.711	687.9
338.716	691.1
338.72	707.2
338.725	827.4
338.73	968.2
338.735	870.5
338.74	715.3
338.745	691.3
338.75	752.9
338.755	842
338.76	918.3
338.764	1396.2
338.769	2980.1
338.774	3553.3
338.779	1922.9
338.784	944
338.789	1035.8
338.794	2243.7
338.799	4935.9
338.803	5632.7
338.808	3019.4
338.813	1168.6
338.818	728.7
338.823	684.4
338.828	706
338.833	699.6
338.838	688.4
338.843	697.8
338.847	684.8
338.852	653.7
338.857	647.4
338.862	672.5
338.867	707.4
338.872	709.2
338.877	667.7
338.882	644.3
338.887	643.2
338.891	652.8
338.896	695.5
338.901	781.1
338.906	818.8
338.911	745.5
338.916	722.5
338.921	716.6
338.926	672.6
338.931	646.1
338.935	636.9
338.94	640.2
338.945	665.1
338.95	699
338.955	706.8
338.96	754.4
338.965	868.1
338.97	838.3
338.975	704.7
338.979	656.9
338.984	656.6
338.989	663.1
338.994	683.7
338.999	745.2
339.004	830.5
339.009	845
339.014	856.3
339.019	1181.3
339.023	2607.2
339.028	4186
339.033	3212.1
339.038	1350
339.043	754.4
339.048	663.5
339.053	661.5
339.058	728.8
339.063	1111.2
339.067	2265.3
339.072	3178.8
339.077	2279.6
339.082	1144.9
339.087	773
339.092	710.4
339.097	801.8
339.102	985
339.106	958.8
339.111	746
339.116	656.4
339.121	640.4
339.126	651.8
339.131	682
339.136	736.5
339.141	844.5
339.146	909.5
339.15	814.1
339.155	716.1
339.16	725.8
339.165	734.4
339.17	681.5
339.175	647.1
339.18	648.7
339.185	678.4
339.19	768.4
339.194	1069.7
339.199	1383
339.204	1262.1
339.209	871.9
339.214	679.8
339.219	645.2
339.224	656.8
339.229	678.2
339.233	681.7
339.238	666.8
339.243	648.8
339.248	638
339.253	643.4
339.258	665.1
339.263	669.1
339.268	652
339.273	645.8
339.277	675
339.282	846.7
339.287	1643.5
339.292	3141.7
339.297	3138.8
339.302	1630.6
339.307	885.6
339.312	723.1
339.316	662
339.321	643.1
339.326	638.1
339.331	633
339.336	632.3
339.341	645.9
339.346	698.9
339.351	819.9
339.356	846.7
339.36	772.4
339.365	721
339.37	691.7
339.375	727.4
339.38	800.7
339.385	759.4
339.39	669.5
339.395	641.4
339.4	647.5
339.404	671
339.409	705.2
339.414	803.2
339.419	939.3
339.424	878.8
339.429	712.5
339.434	651.5
339.439	645.4
339.443	644.5
339.448	644
339.453	665.5
339.458	774.7
339.463	1048.7
339.468	1176.1
339.473	983.3
339.478	839.1
339.483	789.1
339.487	1007.6
339.492	2177.1
339.497	4509.1
339.502	4917.1
339.507	2585.9
339.512	1042.1
339.517	720.5
339.522	665.4
339.526	647
339.531	647.2
339.536	659.1
339.541	679.5
339.546	680.9
339.551	651.8
339.556	632.8
339.561	628.5
339.566	630.9
339.57	634.2
339.575	643.2
339.58	659.3
339.585	692.1
339.59	706.6
339.595	701
339.6	751
339.605	808
339.609	742.8
339.614	657.5
339.619	635.3
339.624	631.8
339.629	630.5
339.634	630.7
339.639	633.5
339.644	632.1
339.649	634.9
339.653	668.1
339.658	817.2
339.663	1061.3
339.668	1038.2
339.673	838
339.678	756.4
339.683	723.1
339.688	700.5
339.692	734.3
339.697	747.5
339.702	758.8
339.707	863.4
339.712	892.9
339.717	974
339.722	1832.8
339.727	3132
339.732	2744
339.736	1346.1
339.741	776
339.746	674.1
339.751	648.8
339.756	638.2
339.761	636.6
339.766	653.2
339.771	743.3
339.775	942.2
339.78	991.2
339.785	808.9
339.79	683.1
339.795	656.2
339.8	689
339.805	880.7
339.81	1160.3
339.814	1071.1
339.819	770.4
339.824	654.8
339.829	636
339.834	654.5
339.839	712.5
339.844	736.1
339.849	681.2
339.854	640.1
339.858	629.5
339.863	632.5
339.868	635.6
339.873	635.3
339.878	630
339.883	627.4
339.888	634.1
339.893	664.1
339.897	719
339.902	725.2
339.907	675.4
339.912	642.3
339.917	630.7
339.922	628.5
339.927	628.1
339.932	629.4
339.936	628.2
339.941	635.3
339.946	641.9
339.951	653.2
339.956	710.8
339.961	924.5
339.966	1586
339.971	2766.2
339.975	2826.3
339.98	1568
339.985	812.1
339.99	669.9
339.995	709.9
340	928.2
340.005	1128
340.01	966.8
340.015	780.4
340.019	859.5
340.024	961.7
340.029	858.1
340.034	703.4
340.039	660.6
340.044	699.2
340.049	927.3
340.054	1552.8
340.058	1862.9
340.063	1293.9
340.068	783.2
340.073	655.9
340.078	638.2
340.083	635.2
340.088	644.2
340.093	691.5
340.097	958.2
340.102	1824.3
340.107	2558.9
340.112	1897.5
340.117	976.3
340.122	695.1
340.127	688.8
340.132	727.9
340.136	721.8
340.141	687.3
340.146	651.1
340.151	636.8
340.156	639.4
340.161	655.5
340.166	671.9
340.171	659.7
340.176	639.1
340.18	645.2
340.185	710.3
340.19	922.6
340.195	1090.5
340.2	935.6
340.205	763.1
340.21	736.8
340.215	716.3
340.219	697.4
340.224	670.4
340.229	645.2
340.234	640.4
340.239	641.6
340.244	654.4
340.249	739.3
340.254	863
340.258	859.9
340.263	858.3
340.268	942.3
340.273	861.4
340.278	705.8
340.283	669.1
340.288	755.6
340.293	1009.8
340.297	1164
340.302	958.5
340.307	731.6
340.312	655.2
340.317	650.9
340.322	704.7
340.327	864.6
340.332	1165.9
340.336	1757
340.341	2073.3
340.346	1494.4
340.351	907.3
340.356	707.3
340.361	650.4
340.366	641.5
340.371	650.6
340.375	660.1
340.38	696.8
340.385	803.2
340.39	1022.4
340.395	1392.8
340.4	1432.1
340.405	1003.9
340.41	710.9
340.414	678.9
340.419	752.1
340.424	816.4
340.429	774.3
340.434	808.3
340.439	1186.4
340.444	1733.5
340.449	1578.6
340.453	967.6
340.458	698
340.463	675.9
340.468	718
340.473	757
340.478	780.9
340.483	746.8
340.488	678.7
340.492	665.1
340.497	714.4
340.502	846.3
340.507	1174.7
340.512	1635.4
340.517	1525.1
340.522	1009.8
340.527	829.4
340.531	915.5
340.536	993.4
340.541	847.7
340.546	712.2
340.551	681.9
340.556	669.6
340.561	677
340.566	709.6
340.57	741.9
340.575	761.8
340.58	733.5
340.585	729.1
340.59	1043.2
340.595	2391.6
340.6	4312.4
340.605	3801.2
340.609	1752.5
340.614	829.6
340.619	675.3
340.624	660.1
340.629	675.9
340.634	748.7
340.639	818.4
340.644	787.8
340.648	717.8
340.653	712.2
340.658	756.4
340.663	779.6
340.668	756.9
340.673	906.7
340.678	1364.8
340.683	1536.3
340.687	1101.6
340.692	742.1
340.697	653.6
340.702	640.6
340.707	641.5
340.712	642.8
340.717	644.3
340.722	644.7
340.726	649.3
340.731	664.3
340.736	710.5
340.741	807.1
340.746	1248.1
340.751	2609.7
340.756	3885.5
340.76	2969.5
340.765	1365.2
340.77	793.3
340.775	755.4
340.78	794.4
340.785	794.3
340.79	880.6
340.795	983.3
340.799	897.1
340.804	768.5
340.809	829.3
340.814	1122.2
340.819	1312.2
340.824	1083
340.829	851.4
340.834	842.1
340.838	834.7
340.843	801.2
340.848	819.4
340.853	1007.8
340.858	1513
340.863	1697
340.868	1262.1
340.873	1131.3
340.877	1408
340.882	1336
340.887	963
340.892	750.4
340.897	696.1
340.902	697.3
340.907	738.3
340.912	782.2
340.916	772.6
340.921	741.6
340.926	748.5
340.931	803.4
340.936	823.1
340.941	759.2
340.946	698.5
340.951	692.4
340.955	786
340.96	1155.3
340.965	1593.2
340.97	1421.4
340.975	927.2
340.98	760.5
340.985	761.8
340.989	772
340.994	984.7
340.999	1845
341.004	2864.1
341.009	2491.9
341.014	1546.2
341.019	1213.6
341.024	997
341.028	783.6
341.033	707.7
341.038	697
341.043	715.2
341.048	726.9
341.053	712.6
341.058	693.1
341.063	682.4
341.067	685.9
341.072	700.9
341.077	740.9
341.082	771.7
341.087	800.7
341.092	853.7
341.097	871.3
341.102	813.3
341.106	841
341.111	1229.8
341.116	1937.5
341.121	2158
341.126	1750.5
341.131	1196.1
341.136	855.3
341.14	764.1
341.145	743.6
341.15	721
341.155	702
341.16	704.1
341.165	708.7
341.17	711.3
341.175	718.6
341.179	739.6
341.184	806.5
341.189	918.9
341.194	1005
341.199	1458.4
341.204	4719.1
341.209	14634.9
341.214	22931.8
341.218	15875.1
341.223	5210.9
341.228	1471
341.233	912
341.238	874
341.243	892.8
341.248	1052.9
341.252	1808.9
341.257	4267
341.262	12978
341.267	32487.1
341.272	39996
341.277	23608.8
341.282	6406.8
341.287	1624.1
341.291	926.4
341.296	845.6
341.301	847.6
341.306	814.8
341.311	754
341.316	721.9
341.321	710.8
341.326	700.6
341.33	694.9
341.335	693
341.34	711
341.345	787.1
341.35	896
341.355	926.9
341.36	959.7
341.364	960.3
341.369	824.6
341.374	723
341.379	690.3
341.384	679.7
341.389	685.2
341.394	689.3
341.398	669.7
341.403	658.7
341.408	678.3
341.413	740.1
341.418	795.1
341.423	752.6
341.428	683.6
341.433	662.8
341.437	698.1
341.442	789.4
341.447	868.5
341.452	929.4
341.457	1037.8
341.462	1095.3
341.467	1331.7
341.472	1644
341.476	1364.2
341.481	876.6
341.486	684.6
341.491	654.7
341.496	659.3
341.501	679.6
341.506	717.6
341.51	723.6
341.515	685.8
341.52	658.7
341.525	650.4
341.53	656.2
341.535	679.8
341.54	714
341.545	718.9
341.549	692.9
341.554	674.7
341.559	697.6
341.564	891.6
341.569	2140.2
341.574	6249.8
341.579	10709.7
341.583	8557.6
341.588	3403.4
341.593	1128.7
341.598	750.7
341.603	691.6
341.608	663.4
341.613	650.8
341.618	649.9
341.622	656.8
341.627	658.1
341.632	656
341.637	647.4
341.642	641
341.647	641.6
341.652	646.4
341.656	670.3
341.661	739.4
341.666	827.1
341.671	812.1
341.676	745.2
341.681	707
341.686	689.5
341.691	669.5
341.695	647.8
341.7	636.2
341.705	638.6
341.71	642.9
341.715	643.5
341.72	653.8
341.725	671.8
341.729	704.3
341.734	786.6
341.739	898.3
341.744	938.2
341.749	954.6
341.754	1107.4
341.759	1448.8
341.763	1679.1
341.768	1407
341.773	962.8
341.778	732
341.783	660.5
341.788	636.6
341.793	634
341.798	632.5
341.802	633.2
341.807	631.2
341.812	632.4
341.817	634.5
341.822	641.7
341.827	679
341.832	806.1
341.836	1173.1
341.841	1878.2
341.846	2214.6
341.851	1594.8
341.856	933.5
341.861	705.9
341.866	653.3
341.871	636.3
341.875	633.2
341.88	641.6
341.885	658.8
341.89	661.5
341.895	660.5
341.9	688.8
341.905	721.1
341.909	708.2
341.914	698.5
341.919	720.8
341.924	751.1
341.929	737
341.934	688.4
341.939	682.2
341.943	822.9
341.948	1150.9
341.953	1317.4
341.958	1039.3
341.963	739
341.968	647.5
341.973	636.1
341.978	635.1
341.982	638.5
341.987	641.1
341.992	638.5
341.997	631.1
342.002	629.1
342.007	629.5
342.012	632.1
342.016	642.7
342.021	693.1
342.026	811.6
342.031	904.2
342.036	907.1
342.041	834.4
342.046	731.4
342.05	673.3
342.055	694.6
342.06	717.6
342.065	714.6
342.07	753.1
342.075	863.1
342.08	867.3
342.085	740.6
342.089	654.5
342.094	639.2
342.099	650.5
342.104	669.7
342.109	669.5
342.114	656.1
342.119	660.7
342.123	693.3
342.128	716.9
342.133	714.3
342.138	700.8
342.143	723.6
342.148	1027
342.153	2058.2
342.157	3281.7
342.162	2924.4
342.167	1608
342.172	835.3
342.177	670.6
342.182	655.8
342.187	687.4
342.191	757
342.196	880.8
342.201	986.3
342.206	917.3
342.211	764.6
342.216	680.6
342.221	655.1
342.225	640
342.23	651.7
342.235	734.9
342.24	1018.3
342.245	1378.8
342.25	1374
342.255	1081.1
342.26	850.8
342.264	717
342.269	671.6
342.274	711
342.279	773.4
342.284	766.5
342.289	784.3
342.294	984.5
342.298	1207.8
342.303	1104.1
342.308	837.5
342.313	729
342.318	830.7
342.323	975.5
342.328	977
342.332	878
342.337	794.9
342.342	727.8
342.347	680.3
342.352	705.8
342.357	822.2
342.362	913.6
342.366	860.1
342.371	751.4
342.376	683
342.381	664.4
342.386	733.7
342.391	1038.4
342.396	1536.5
342.4	1779.8
342.405	1629.7
342.41	1336.5
342.415	1102.8
342.42	1016.8
342.425	928.7
342.43	766.6
342.434	670.1
342.439	656.1
342.444	667.4
342.449	676.2
342.454	713.4
342.459	945.4
342.464	1700.3
342.469	2612.1
342.473	2476.1
342.478	1522.9
342.483	859.3
342.488	747.4
342.493	784.6
342.498	781.8
342.503	771.5
342.507	791.6
342.512	785
342.517	725.8
342.522	673.2
342.527	660.2
342.532	674.2
342.537	684.3
342.541	674.7
342.546	658.3
342.551	650
342.556	652
342.561	667.8
342.566	692
342.571	690.8
342.575	667.9
342.58	647.8
342.585	643.8
342.59	661.3
342.595	745.8
342.6	946.4
342.605	1103.4
342.609	1022.1
342.614	814
342.619	698
342.624	657.8
342.629	661.9
342.634	688.6
342.639	715
342.643	705
342.648	692.5
342.653	708.2
342.658	766.9
342.663	1004
342.668	1855.6
342.673	3118.8
342.677	3999.5
342.682	5302.7
342.687	6371.6
342.692	4799.6
342.697	2233.6
342.702	964.2
342.707	722.6
342.711	703.3
342.716	801.5
342.721	1081.9
342.726	1422.1
342.731	1448.8
342.736	1100
342.741	774.9
342.745	672.6
342.75	661.3
342.755	688.4
342.76	833.8
342.765	1124.1
342.77	1292.1
342.775	1082.7
342.779	793.5
342.784	671.1
342.789	647.6
342.794	645.6
342.799	647.8
342.804	646.5
342.809	645.2
342.813	651.2
342.818	676.6
342.823	741.8
342.828	789.9
342.833	760
342.838	697.3
342.843	661.9
342.847	658.1
342.852	667.4
342.857	734.5
342.862	1243.1
342.867	3580.7
342.872	8019.5
342.877	9849.9
342.881	6533
342.886	2470
342.891	955.4
342.896	728
342.901	686.7
342.906	669.9
342.911	663.9
342.915	662.9
342.92	659.9
342.925	675.8
342.93	783
342.935	1134
342.94	1570.9
342.945	1585.2
342.949	1411.7
342.954	1505.5
342.959	1542.9
342.964	1256.1
342.969	911.6
342.974	752.1
342.979	693.6
342.983	681.7
342.988	728.3
342.993	926.1
342.998	1399.5
343.003	1797
343.008	1614
343.012	1146.1
343.017	850.1
343.022	756.3
343.027	699.9
343.032	669.9
343.037	660.2
343.042	667.8
343.046	675
343.051	670.5
343.056	660.5
343.061	649.8
343.066	645.4
343.071	640.1
343.076	641.4
343.08	656.7
343.085	676
343.09	685.5
343.095	662.5
343.1	644.7
343.105	638
343.11	634.2
343.114	636.3
343.119	650.4
343.124	674
343.129	688.6
343.134	701.4
343.139	707.5
343.144	690.7
343.148	661.4
343.153	640.5
343.158	643
343.163	671.7
343.168	754.8
343.173	850.7
343.178	846.1
343.182	758.1
343.187	675.1
343.192	645.1
343.197	638.8
343.202	638
343.207	641.7
343.212	670.9
343.216	759.9
343.221	865.1
343.226	863.4
343.231	794.7
343.236	764.7
343.241	781.7
343.245	784.4
343.25	754.3
343.255	708.9
343.26	681.7
343.265	672.7
343.27	682.1
343.275	752.5
343.279	1304.6
343.284	3655.9
343.289	7806
343.294	9631.9
343.299	6907.6
343.304	2963.8
343.309	1075.9
343.313	730.2
343.318	672.6
343.323	657.9
343.328	649.4
343.333	645.3
343.338	643.9
343.343	644.7
343.347	642.6
343.352	640.6
343.357	640.4
343.362	639.9
343.367	639.7
343.372	638.1
343.376	639.6
343.381	644.9
343.386	666.4
343.391	706.9
343.396	735.2
343.401	712.6
343.406	673.7
343.41	654.6
343.415	660.2
343.42	664.2
343.425	696.6
343.43	855.2
343.435	1174.9
343.44	1326.4
343.444	1150.5
343.449	861.7
343.454	716.9
343.459	679.5
343.464	666.7
343.469	714.5
343.474	1062
343.478	2237.7
343.483	3833.6
343.488	4105.2
343.493	2803.8
343.498	1333.8
343.503	765
343.508	670.1
343.512	657.4
343.517	650.7
343.522	649.9
343.527	643.3
343.532	639.6
343.537	636.4
343.541	637.6
343.546	645
343.551	651.5
343.556	651.9
343.561	643.6
343.566	642.5
343.571	657.9
343.575	679.9
343.58	686.9
343.585	670
343.59	647.7
343.595	636.4
343.6	634.3
343.605	637.4
343.609	641.6
343.614	663.5
343.619	736.4
343.624	866.2
343.629	993.4
343.634	1067.6
343.638	1059.6
343.643	954.3
343.648	805.2
343.653	711.8
343.658	683.2
343.663	689.3
343.668	722.6
343.672	768.7
343.677	772.4
343.682	729.2
343.687	688.3
343.692	661
343.697	655
343.702	656.8
343.706	668.1
343.711	709.6
343.716	753.1
343.721	819.7
343.726	1094.7
343.731	1596.8
343.735	1863.3
343.74	1580.1
343.745	1052.8
343.75	729.9
343.755	655.6
343.76	646.2
343.765	649.6
343.769	658
343.774	669.4
343.779	740.5
343.784	1179.2
343.789	2370.2
343.794	3605
343.798	3630.2
343.803	2607.9
343.808	1570.7
343.813	1143.6
343.818	944.2
343.823	778.7
343.828	705.5
343.832	670.8
343.837	663
343.842	727.2
343.847	856.4
343.852	926.7
343.857	880.7
343.862	773.1
343.866	715.1
343.871	695.4
343.876	674.1
343.881	652.8
343.886	644.6
343.891	646.9
343.895	664.1
343.9	793.1
343.905	1175.1
343.91	1618.7
343.915	1671.4
343.92	1318.8
343.925	899
343.929	718.2
343.934	710.9
343.939	810.2
343.944	1044.3
343.949	1371.8
343.954	1722.4
343.958	1846.1
343.963	1716.8
343.968	1494.9
343.973	1283.1
343.978	1085.1
343.983	884.5
343.988	726.6
343.992	662.1
343.997	655.2
344.002	668
344.007	684.6
344.012	681
344.017	664.2
344.021	648.9
344.026	641.7
344.031	648.3
344.036	684.4
344.041	751.8
344.046	798.6
344.051	769.1
344.055	707.4
344.06	669.3
344.065	686.8
344.07	719.7
344.075	717
344.08	691.3
344.084	665.4
344.089	659.9
344.094	682
344.099	767.4
344.104	989.3
344.109	1181.4
344.114	1164.7
344.118	969.4
344.123	747.3
344.128	667.1
344.133	674.5
344.138	732.8
344.143	811.1
344.147	827.1
344.152	791.1
344.157	764.2
344.162	796.1
344.167	833.2
344.172	829.6
344.177	781.9
344.181	729
344.186	692.1
344.191	694.5
344.196	790.4
344.201	1432.6
344.206	3730.1
344.21	6879.2
344.215	7810.9
344.22	5975.9
344.225	2882.6
344.23	1152.2
344.235	784.8
344.24	712.6
344.244	679.6
344.249	669.8
344.254	664.2
344.259	668.6
344.264	674
344.269	675.3
344.273	672.4
344.278	666.7
344.283	657.8
344.288	653.1
344.293	650
344.298	651.4
344.303	654.6
344.307	658.3
344.312	658.2
344.317	653.5
344.322	653.1
344.327	661.4
344.332	678.5
344.336	684.6
344.341	679
344.346	663
344.351	654.5
344.356	661.5
344.361	725.4
344.366	951.9
344.37	1248.5
344.375	1343.2
344.38	1193.7
344.385	914.2
344.39	743.4
344.395	718.1
344.399	711
344.404	699.1
344.409	680.1
344.414	671.6
344.419	670.8
344.424	673.8
344.428	669.6
344.433	669.6
344.438	702.1
344.443	854.5
344.448	1156.7
344.453	1345.9
344.458	1301
344.462	1088
344.467	1109.1
344.472	2747.6
344.477	8121.2
344.482	14505.1
344.487	15778.2
344.491	11905.5
344.496	5493.1
344.501	1733.3
344.506	1000.8
344.511	939
344.516	962.9
344.52	1046.1
344.525	1130.9
344.53	1113
344.535	971.3
344.54	790.4
344.545	693.1
344.55	673.9
344.554	667.5
344.559	661.8
344.564	662.3
344.569	660.4
344.574	661.7
344.579	675.9
344.583	695.5
344.588	734.3
344.593	843.2
344.598	1003.5
344.603	1069.4
344.608	994.4
344.612	827.2
344.617	692.2
344.622	662.1
344.627	670.7
344.632	701.1
344.637	746
344.642	760.3
344.646	742.3
344.651	697.6
344.656	660.8
344.661	667.2
344.666	691.2
344.671	732.1
344.675	828.1
344.68	936.6
344.685	969.1
344.69	912.4
344.695	817.9
344.7	839.2
344.704	1106.6
344.709	1376.8
344.714	1395
344.719	1264.2
344.724	1284.3
344.729	1750
344.734	2106.7
344.738	2010.1
344.743	1549.8
344.748	1058.5
344.753	877.3
344.758	860
344.763	841.2
344.767	803.6
344.772	753.6
344.777	715.5
344.782	825
344.787	1346.4
344.792	2081.3
344.796	2345.3
344.801	2046.4
344.806	1383.5
344.811	826.8
344.816	675.5
344.821	655.5
344.826	657.4
344.83	712.6
344.835	867.1
344.84	1039.1
344.845	1102.5
344.85	1098.8
344.855	1027.8
344.859	916.2
344.864	829.2
344.869	718.4
344.874	656.8
344.879	654
344.884	733.6
344.888	1115.3
344.893	1773.8
344.898	2120.3
344.903	1974.2
344.908	1481.5
344.913	915.5
344.917	743.8
344.922	750
344.927	756.3
344.932	753.5
344.937	721.2
344.942	696.9
344.946	729.6
344.951	847
344.956	1037.8
344.961	1134.6
344.966	1066.7
344.971	910.9
344.976	788.9
344.98	815.9
344.985	870.3
344.99	867.7
344.995	830.9
345	762.6
