#Acq. time (s)=	0.17
#Accumulations=	20
#Range (nm)=	354...389
#Windows=	4
#Auto scanning=	Off
#Autofocus=	Off
#AutoExposure=	Off
#Spike filter=	Off
#Delay time (s)=	0
#Binning=	1
#Readout mode=	Signal
#DeNoise=	Off
#ICS correction=	Off
#Dark correction=	Off
#Inst. Process=	Off
#Detector temperature (°C)=	-75.19
#Instrument=	OSD
#Detector=	Synapse
#Grating=	2400
#Front entrance slit=	20
#Exit mirror=	Side
#Full time(mm:ss)=	4:00
#Project=	
#Sample=	
#Site=	
#Title=	W_Ar_DC_3Pa_1493W_439V_3_4A
#Remark=	
#Date=	10.12.2019 10:15
#Acquired=	10.12.2019 10:15:06
354.004	790.8
354.009	680.7
354.014	636.4
354.019	629.699
354.024	628.899
354.029	625.699
354.033	623.499
354.038	623.399
354.043	624.898
354.048	630.798
354.053	641.198
354.058	650.498
354.062	643.698
354.067	632.898
354.072	643.997
354.077	675.797
354.082	758.897
354.087	940.997
354.091	1048.7
354.096	872.297
354.101	691.096
354.106	639.496
354.111	629.796
354.116	628.196
354.12	628.596
354.125	627.195
354.13	629.095
354.135	626.495
354.14	630.295
354.145	633.995
354.15	643.794
354.154	648.894
354.159	643.694
354.164	657.194
354.169	695.594
354.174	701.494
354.179	663.193
354.183	660.793
354.188	699.293
354.193	712.193
354.198	671.593
354.203	640.993
354.208	633.992
354.212	631.492
354.217	631.992
354.222	634.392
354.227	656.192
354.232	719.591
354.237	833.291
354.241	869.991
354.246	753.991
354.251	673.091
354.256	668.691
354.261	675.69
354.266	654.19
354.27	638.29
354.275	636.79
354.28	642.09
354.285	653.989
354.29	712.189
354.295	843.389
354.299	879.589
354.304	761.089
354.309	678.489
354.314	666.788
354.319	682.988
354.324	709.888
354.328	693.288
354.333	661.488
354.338	659.288
354.343	665.287
354.348	661.887
354.353	654.987
354.357	648.387
354.362	654.687
354.367	674.986
354.372	697.286
354.377	680.786
354.382	667.586
354.386	674.286
354.391	689.985
354.396	733.485
354.401	868.685
354.406	986.985
354.411	911.685
354.415	874.585
354.42	1037.88
354.425	1161.98
354.43	1243.78
354.435	2204.98
354.44	6552.58
354.444	17976.1
354.449	26081.8
354.454	16918.1
354.459	5376.38
354.464	1572.48
354.469	927.583
354.473	1048.78
354.478	1858.78
354.483	3648.18
354.488	4037.28
354.493	2105.08
354.498	1215.08
354.502	1968.58
354.507	4634.78
354.512	5762.08
354.517	3001.28
354.522	1110.88
354.527	727.88
354.531	669.18
354.536	652.98
354.541	644.38
354.546	641.08
354.551	646.379
354.556	682.879
354.56	733.279
354.565	726.379
354.57	686.879
354.575	670.279
354.58	649.078
354.585	631.478
354.589	628.978
354.594	631.978
354.599	642.078
354.604	638.478
354.609	632.377
354.614	609.277
354.618	626.277
354.623	627.477
354.628	631.676
354.633	625.376
354.638	618.076
354.643	618.476
354.647	616.576
354.652	617.976
354.657	619.476
354.662	633.175
354.667	670.175
354.672	718.675
354.676	704.175
354.681	648.975
354.686	622.074
354.691	618.274
354.696	619.774
354.701	618.174
354.705	617.574
354.71	615.174
354.715	616.273
354.72	618.373
354.725	622.673
354.73	626.973
354.734	639.872
354.739	683.772
354.744	768.272
354.749	901.772
354.754	926.472
354.759	780.472
354.763	688.271
354.768	732.171
354.773	981.471
354.778	1179.57
354.783	939.871
354.788	688.171
354.792	631.97
354.797	628.17
354.802	627.87
354.807	629.47
354.812	632.27
354.816	635.07
354.821	669.669
354.826	786.669
354.831	902.369
354.836	819.869
354.841	688.269
354.845	654.968
354.85	648.868
354.855	629.568
354.86	619.168
354.865	618.168
354.87	616.568
354.874	617.667
354.879	619.467
354.884	621.967
354.889	621.667
354.894	626.367
354.899	641.466
354.903	646.766
354.908	629.266
354.913	620.466
354.918	619.166
354.923	629.566
354.928	653.765
354.932	665.765
354.937	651.465
354.942	630.065
354.947	622.465
354.952	618.864
354.957	617.864
354.961	618.564
354.966	618.664
354.971	620.764
354.976	623.763
354.981	636.563
354.986	683.263
354.99	797.863
354.995	881.463
355	912.363
355.005	1247.76
355.01	1674.16
355.015	1600.76
355.019	1983.36
355.024	4163.86
355.029	5634.96
355.034	3566.46
355.039	1383.86
355.043	773.361
355.048	715.161
355.053	734.361
355.058	693.96
355.063	643.66
355.068	628.06
355.072	635.16
355.077	641.76
355.082	631.06
355.087	621.259
355.092	620.259
355.097	617.659
355.101	616.559
355.106	617.359
355.111	617.058
355.116	618.058
355.121	617.158
355.126	615.558
355.13	613.158
355.135	614.658
355.14	616.557
355.145	622.157
355.15	644.757
355.155	693.757
355.159	707.657
355.164	657.656
355.169	639.456
355.174	649.256
355.179	644.556
355.184	630.856
355.188	628.156
355.193	624.455
355.198	616.855
355.203	616.055
355.208	631.955
355.212	651.655
355.217	652.654
355.222	636.154
355.227	633.154
355.232	630.854
355.237	620.254
355.241	615.454
355.246	621.653
355.251	648.353
355.256	677.753
355.261	670.853
355.266	645.053
355.27	632.052
355.275	623.252
355.28	629.952
355.285	640.152
355.29	635.352
355.295	622.552
355.299	617.251
355.304	618.651
355.309	621.051
355.314	624.451
355.319	631.451
355.324	639.85
355.328	662.95
355.333	766.25
355.338	1237.45
355.343	2406.15
355.348	3155.85
355.352	2808.45
355.357	2247.65
355.362	1295.05
355.367	749.349
355.372	647.249
355.377	632.449
355.381	628.048
355.386	622.348
355.391	619.948
355.396	620.048
355.401	617.548
355.406	617.847
355.41	619.847
355.415	630.247
355.42	643.447
355.425	642.447
355.43	639.046
355.435	680.746
355.439	779.446
355.444	802.546
355.449	704.546
355.454	635.346
355.459	617.145
355.463	617.245
355.468	616.845
355.473	616.445
355.478	615.645
355.483	616.445
355.488	625.844
355.492	668.744
355.497	765.744
355.502	804.744
355.507	710.544
355.512	646.943
355.517	653.643
355.521	743.543
355.526	828.043
355.531	744.843
355.536	646.643
355.541	621.642
355.546	616.142
355.55	615.742
355.555	618.042
355.56	621.342
355.565	631.941
355.57	630.141
355.574	625.741
355.579	636.741
355.584	655.141
355.589	664.541
355.594	667.94
355.599	677.24
355.603	712.34
355.608	902.44
355.613	1415.24
355.618	1508.54
355.623	1026.54
355.628	797.039
355.632	748.039
355.637	829.139
355.642	1138.04
355.647	1284.44
355.652	961.738
355.656	692.338
355.661	631.938
355.666	626.538
355.671	628.237
355.676	627.137
355.681	621.137
355.685	618.637
355.69	619.937
355.695	619.137
355.7	619.936
355.705	624.436
355.71	633.136
355.714	649.536
355.719	647.736
355.724	629.735
355.729	625.035
355.734	624.235
355.738	629.635
355.743	653.235
355.748	663.734
355.753	650.934
355.758	630.234
355.763	626.934
355.767	625.134
355.772	634.234
355.777	668.533
355.782	695.933
355.787	669.133
355.792	637.133
355.796	625.633
355.801	629.833
355.806	624.532
355.811	622.132
355.816	624.732
355.82	630.832
355.825	656.532
355.83	712.231
355.835	737.231
355.84	680.831
355.845	639.231
355.849	636.131
355.854	645.43
355.859	700.23
355.864	974.53
355.869	2461.03
355.874	5627.93
355.878	5685.03
355.883	2394.33
355.888	1056.83
355.893	1043.93
355.898	1042.03
355.902	807.029
355.907	667.028
355.912	637.428
355.917	634.828
355.922	659.828
355.927	751.028
355.931	823.528
355.936	754.027
355.941	667.327
355.946	646.927
355.951	675.027
355.955	691.927
355.96	666.227
355.965	645.526
355.97	642.626
355.975	633.326
355.98	625.626
355.984	625.226
355.989	626.625
355.994	628.825
355.999	635.725
356.004	649.525
356.009	690.625
356.013	847.724
356.018	1601.02
356.023	4691.82
356.028	7636.92
356.033	5014.22
356.037	1578.02
356.042	784.523
356.047	717.423
356.052	699.923
356.057	657.023
356.062	633.323
356.066	630.523
356.071	630.222
356.076	627.622
356.081	625.622
356.086	624.022
356.09	621.722
356.095	624.921
356.1	627.821
356.105	622.721
356.11	618.221
356.115	614.321
356.119	615.521
356.124	617.12
356.129	618.52
356.134	639.62
356.139	731.92
356.143	834.12
356.148	766.219
356.153	655.019
356.158	623.719
356.163	624.319
356.168	634.419
356.172	634.518
356.177	631.218
356.182	619.418
356.187	614.418
356.192	613.718
356.197	612.318
356.201	612.117
356.206	613.017
356.211	614.117
356.216	614.917
356.221	614.217
356.225	615.817
356.23	623.816
356.235	637.316
356.24	645.116
356.245	672.816
356.25	784.916
356.254	846.815
356.259	798.115
356.264	925.015
356.269	1130.81
356.274	1007.51
356.278	737.714
356.283	637.314
356.288	619.614
356.293	613.014
356.298	612.514
356.303	612.414
356.307	613.213
356.312	613.713
356.317	614.813
356.322	621.313
356.327	619.513
356.331	617.612
356.336	618.812
356.341	626.812
356.346	675.912
356.351	827.612
356.356	938.912
356.36	835.211
356.365	711.611
356.37	653.411
356.375	622.211
356.38	614.511
356.384	613.711
356.389	611.81
356.394	613.01
356.399	613.41
356.404	615.11
356.409	617.41
356.413	625.409
356.418	693.709
356.423	923.609
356.428	1120.01
356.433	984.609
356.437	877.409
356.442	807.808
356.447	682.008
356.452	629.508
356.457	619.808
356.462	622.008
356.466	632.808
356.471	644.207
356.476	680.807
356.481	773.007
356.486	846.207
356.49	761.007
356.495	658.606
356.5	637.206
356.505	658.606
356.51	671.606
356.515	650.506
356.519	631.005
356.524	621.805
356.529	616.705
356.534	615.605
356.539	617.105
356.543	617.205
356.548	616.904
356.553	617.304
356.558	616.904
356.563	620.304
356.568	623.204
356.572	623.304
356.577	624.203
356.582	623.403
356.587	623.703
356.592	626.003
356.596	624.603
356.601	623.302
356.606	622.002
356.611	621.302
356.616	621.002
356.62	620.102
356.625	624.601
356.63	629.801
356.635	641.701
356.64	663.801
356.645	751.001
356.649	802.101
356.654	726.1
356.659	650.2
356.664	636.6
356.669	636.7
356.673	653.4
356.678	706.299
356.683	946.899
356.688	1397.4
356.693	1347
356.698	872.399
356.702	665.799
356.707	638.698
356.712	651.098
356.717	739.398
356.722	1122.9
356.726	1669.7
356.731	1534.3
356.736	960.297
356.741	703.997
356.746	656.897
356.751	652.297
356.755	658.997
356.76	665.096
356.765	670.996
356.77	655.696
356.775	643.996
356.779	668.796
356.784	704.295
356.789	691.695
356.794	650.495
356.799	633.695
356.803	634.795
356.808	653.595
356.813	762.994
356.818	1110.49
356.823	1403.69
356.828	1194.49
356.832	899.394
356.837	1039.09
356.842	1625.79
356.847	2032.99
356.852	1512.39
356.856	874.393
356.861	670.993
356.866	643.392
356.871	667.392
356.876	789.692
356.881	969.692
356.885	931.492
356.89	737.992
356.895	663.791
356.9	688.691
356.905	707.391
356.909	683.691
356.914	668.291
356.919	663.09
356.924	650.99
356.929	652.99
356.933	667.59
356.938	689.89
356.943	686.09
356.948	664.389
356.953	655.589
356.958	659.089
356.962	670.789
356.967	715.989
356.972	932.888
356.977	2219.59
356.982	7818.29
356.986	17537
356.991	17926
356.996	8290.59
357.001	2318.09
357.006	918.787
357.01	710.787
357.015	679.287
357.02	682.587
357.025	714.286
357.03	722.186
357.035	689.786
357.039	674.386
357.044	661.286
357.049	647.286
357.054	647.185
357.059	656.385
357.063	657.385
357.068	642.785
357.073	631.185
357.078	629.984
357.083	628.884
357.087	628.084
357.092	627.084
357.097	625.784
357.102	624.083
357.107	622.283
357.112	628.583
357.116	653.383
357.121	670.883
357.126	658.983
357.131	641.882
357.136	637.182
357.14	642.982
357.145	718.882
357.15	930.882
357.155	1035.78
357.16	937.081
357.164	1040.38
357.169	1342.68
357.174	1237.48
357.179	846.481
357.184	660.78
357.189	630.88
357.193	626.38
357.198	634.18
357.203	651.08
357.208	648.18
357.213	629.579
357.217	618.479
357.222	616.979
357.227	617.179
357.232	617.279
357.237	616.678
357.241	619.278
357.246	621.378
357.251	634.578
357.256	707.378
357.261	899.378
357.266	991.777
357.27	825.977
357.275	667.277
357.28	625.777
357.285	621.577
357.29	621.176
357.294	625.076
357.299	626.376
357.304	627.576
357.309	648.576
357.314	722.676
357.318	827.975
357.323	802.275
357.328	683.575
357.333	631.175
357.338	621.575
357.342	623.574
357.347	622.474
357.352	619.274
357.357	620.174
357.362	619.074
357.367	617.874
357.371	619.273
357.376	617.973
357.381	620.573
357.386	618.473
357.391	618.373
357.395	622.272
357.4	634.372
357.405	677.372
357.41	714.572
357.415	674.772
357.419	638.771
357.424	636.471
357.429	669.971
357.434	904.171
357.439	1993.27
357.444	4006.47
357.448	4108.97
357.453	2065.67
357.458	896.27
357.463	664.17
357.468	633.57
357.472	626.87
357.477	627.369
357.482	633.669
357.487	635.269
357.492	632.469
357.496	646.569
357.501	689.668
357.506	788.868
357.511	923.468
357.516	1205.97
357.52	1492.77
357.525	1221.87
357.53	803.067
357.535	652.767
357.54	629.667
357.544	632.767
357.549	657.167
357.554	777.066
357.559	992.766
357.564	1005.87
357.569	822.266
357.573	917.766
357.578	1994.17
357.583	3899.27
357.588	3597.47
357.593	1625.97
357.597	794.065
357.602	688.765
357.607	669.664
357.612	659.264
357.617	641.064
357.621	623.264
357.626	622.564
357.631	626.663
357.636	623.363
357.641	620.563
357.645	619.063
357.65	616.563
357.655	615.263
357.66	615.562
357.665	613.162
357.67	613.562
357.674	612.762
357.679	614.062
357.684	615.262
357.689	613.961
357.694	611.861
357.698	611.361
357.703	611.861
357.708	614.961
357.713	623.06
357.718	635.36
357.722	654.06
357.727	647.26
357.732	624.86
357.737	614.56
357.742	612.859
357.746	612.159
357.751	619.959
357.756	639.159
357.761	662.259
357.766	701.358
357.77	760.458
357.775	750.158
357.78	669.158
357.785	630.658
357.79	626.658
357.794	627.957
357.799	616.557
357.804	613.057
357.809	612.057
357.814	609.757
357.819	610.956
357.823	611.556
357.828	612.056
357.833	614.756
357.838	617.056
357.843	614.856
357.847	612.855
357.852	612.555
357.857	614.455
357.862	618.555
357.867	617.055
357.871	614.154
357.876	612.054
357.881	612.854
357.886	615.954
357.891	624.554
357.895	650.354
357.9	669.453
357.905	662.053
357.91	651.053
357.915	634.053
357.919	616.953
357.924	612.153
357.929	611.352
357.934	611.152
357.939	611.552
357.943	610.552
357.948	612.252
357.953	613.151
357.958	622.651
357.963	635.351
357.968	631.951
357.972	620.151
357.977	615.651
357.982	617.35
357.987	620.05
357.992	619.35
357.996	620.05
358.001	628.05
358.006	624.949
358.011	618.649
358.016	618.149
358.02	631.749
358.025	672.349
358.03	727.449
358.035	773.648
358.04	883.448
358.044	1043.15
358.049	960.248
358.054	743.348
358.059	639.747
358.064	623.947
358.068	636.247
358.073	755.047
358.078	1227.35
358.083	1774.25
358.088	1474.65
358.092	875.946
358.097	664.246
358.102	630.346
358.107	627.746
358.112	629.245
358.116	625.545
358.121	618.545
358.126	619.545
358.131	624.445
358.136	650.644
358.141	743.744
358.145	925.744
358.15	1457.44
358.155	2717.44
358.16	3032.24
358.165	1734.24
358.169	812.843
358.174	649.443
358.179	642.243
358.184	665.543
358.189	688.043
358.193	677.942
358.198	651.042
358.203	650.242
358.208	708.342
358.213	781.642
358.217	760.641
358.222	676.741
358.227	630.541
358.232	615.641
358.237	613.241
358.241	613.241
358.246	611.94
358.251	611.44
358.256	611.94
358.261	614.04
358.265	621.84
358.27	624.839
358.275	617.039
358.28	613.439
358.285	610.539
358.289	610.539
358.294	614.938
358.299	614.838
358.304	613.738
358.309	613.538
358.313	617.238
358.318	646.338
358.323	820.537
358.328	1370.94
358.333	1888.04
358.337	1550.94
358.342	910.937
358.347	687.937
358.352	694.336
358.357	702.836
358.361	666.736
358.366	624.836
358.371	614.236
358.376	613.435
358.381	617.435
358.385	629.435
358.39	654.435
358.395	702.535
358.4	734.935
358.405	689.234
358.409	634.234
358.414	616.834
358.419	619.834
358.424	632.234
358.429	639.533
358.433	629.733
358.438	621.433
358.443	618.533
358.448	619.933
358.453	617.432
358.457	613.132
358.462	612.632
358.467	610.532
358.472	611.132
358.477	610.732
358.481	612.831
358.486	611.431
358.491	610.331
358.496	609.531
358.501	610.031
358.505	609.331
358.51	610.63
358.515	611.33
358.52	609.33
358.525	609.33
358.529	609.53
358.534	611.329
358.539	609.329
358.544	610.329
358.549	609.929
358.553	615.129
358.558	627.129
358.563	641.628
358.568	636.228
358.573	624.028
358.577	614.128
358.582	610.728
358.587	610.028
358.592	610.027
358.597	609.327
358.601	608.927
358.606	609.227
358.611	612.827
358.616	619.526
358.621	627.926
358.625	626.526
358.63	618.526
358.635	613.826
358.64	610.825
358.645	611.325
358.649	610.225
358.654	608.925
358.659	612.625
358.664	615.025
358.669	617.724
358.673	614.824
358.678	612.924
358.683	611.824
358.688	613.924
358.693	613.123
358.697	618.023
358.702	629.223
358.707	658.123
358.712	696.223
358.717	693.523
358.721	655.623
358.726	638.722
358.731	665.822
358.736	691.522
358.741	672.522
358.745	663.521
358.75	728.521
358.755	1043.82
358.76	2187.42
358.765	3679.82
358.769	3145.52
358.774	1520.72
358.779	782.52
358.784	658.72
358.789	629.72
358.793	618.52
358.798	618.819
358.803	620.019
358.808	628.319
358.813	654.119
358.817	681.919
358.822	667.919
358.827	633.518
358.832	617.218
358.837	613.118
358.841	614.518
358.846	621.318
358.851	629.717
358.856	628.717
358.861	620.217
358.865	614.717
358.87	614.417
358.875	633.316
358.88	683.116
358.885	759.916
358.889	794.416
358.894	749.516
358.899	664.816
358.904	622.416
358.909	612.715
358.913	610.315
358.918	610.315
358.923	610.315
358.928	610.415
358.933	610.714
358.937	609.814
358.942	610.814
358.947	610.814
358.952	611.214
358.957	612.313
358.961	613.113
358.966	612.813
358.971	610.913
358.976	612.113
358.981	611.113
358.985	615.212
358.99	643.112
358.995	787.112
359	1120.01
359.005	1324.91
359.009	1076.21
359.014	754.011
359.019	635.411
359.024	616.011
359.029	612.311
359.033	612.411
359.038	613.11
359.043	623.31
359.048	660.21
359.053	732.31
359.057	765.61
359.062	735.509
359.067	700.509
359.072	681.409
359.077	669.909
359.081	658.009
359.086	647.809
359.091	677.608
359.096	741.108
359.1	739.908
359.105	681.408
359.11	671.708
359.115	745.107
359.12	780.007
359.124	714.607
359.129	650.707
359.134	645.807
359.139	656.107
359.144	659.906
359.148	672.906
359.153	757.806
359.158	1007.91
359.163	1231.61
359.168	1080.91
359.172	796.905
359.177	666.105
359.182	639.905
359.187	631.605
359.192	647.605
359.196	717.104
359.201	821.204
359.206	861.904
359.211	809.604
359.216	790.204
359.22	788.604
359.225	718.903
359.23	650.703
359.235	629.103
359.24	631.503
359.244	641.003
359.249	645.202
359.254	641.402
359.259	651.502
359.264	678.002
359.268	695.702
359.273	710.501
359.278	703.801
359.283	671.301
359.287	649.301
359.292	666.401
359.297	667.601
359.302	649.7
359.307	674.3
359.311	822
359.316	1016.1
359.321	996.2
359.326	789.099
359.331	650.699
359.335	617.699
359.34	611.599
359.345	612.799
359.35	614.599
359.355	619.098
359.359	631.498
359.364	701.298
359.369	876.498
359.374	1016.9
359.379	899.397
359.383	707.497
359.388	627.297
359.393	613.497
359.398	611.397
359.403	610.697
359.407	610.696
359.412	610.196
359.417	611.396
359.422	614.296
359.427	620.396
359.431	620.096
359.436	618.695
359.441	623.195
359.446	651.695
359.45	728.395
359.455	842.895
359.46	930.694
359.465	902.494
359.47	770.294
359.474	664.794
359.479	625.294
359.484	616.094
359.489	616.493
359.494	618.193
359.498	619.193
359.503	614.493
359.508	611.593
359.513	612.092
359.518	610.892
359.522	611.292
359.527	615.092
359.532	626.292
359.537	640.992
359.542	638.791
359.546	627.291
359.551	625.391
359.556	645.891
359.561	683.191
359.565	694.89
359.57	679.69
359.575	708.79
359.58	774.19
359.585	766.49
359.589	705.49
359.594	649.589
359.599	623.489
359.604	613.889
359.609	611.789
359.613	610.589
359.618	611.788
359.623	612.488
359.628	615.888
359.633	632.888
359.637	714.688
359.642	899.388
359.647	1021.49
359.652	903.187
359.657	713.587
359.661	629.987
359.666	616.887
359.671	618.286
359.676	626.386
359.68	639.186
359.685	684.286
359.69	737.586
359.695	723.486
359.7	663.585
359.704	629.485
359.709	644.785
359.714	678.185
359.719	680.285
359.724	646.084
359.728	622.384
359.733	619.084
359.738	616.584
359.743	613.784
359.748	610.383
359.752	613.483
359.757	616.483
359.762	622.483
359.767	623.083
359.772	621.383
359.776	621.782
359.781	624.882
359.786	623.982
359.791	640.082
359.795	782.182
359.8	1337.88
359.805	2212.58
359.81	2413.18
359.815	1668.08
359.819	922.581
359.824	664.681
359.829	629.18
359.834	630.28
359.839	631.78
359.843	624.28
359.848	614.58
359.853	611.98
359.858	610.779
359.863	609.079
359.867	611.079
359.872	612.479
359.877	616.579
359.882	623.878
359.886	645.278
359.891	660.478
359.896	654.478
359.901	636.378
359.906	618.278
359.91	614.377
359.915	614.977
359.92	614.977
359.925	612.477
359.93	612.177
359.934	625.876
359.939	656.876
359.944	690.876
359.949	694.876
359.954	665.876
359.958	632.776
359.963	618.175
359.968	618.075
359.973	624.875
359.977	622.975
359.982	619.475
359.987	619.074
359.992	629.574
359.997	645.974
360.001	646.774
360.006	634.274
360.011	626.073
360.016	620.273
360.021	613.873
360.025	613.273
360.03	620.373
360.035	632.173
360.04	632.372
360.044	623.372
360.049	621.272
360.054	630.372
360.059	635.772
360.064	645.372
360.068	664.571
360.073	669.771
360.078	643.071
360.083	619.171
360.088	614.771
360.092	624.87
360.097	641.17
360.102	645.27
360.107	634.37
360.112	624.47
360.116	624.87
360.121	624.869
360.126	618.969
360.131	613.269
360.135	611.369
360.14	613.369
360.145	618.768
360.15	622.168
360.155	622.068
360.159	629.868
360.164	642.468
360.169	651.968
360.174	657.267
360.179	646.767
360.183	631.867
360.188	621.667
360.193	618.967
360.198	617.066
360.202	614.666
360.207	614.266
360.212	617.566
360.217	618.866
360.222	618.166
360.226	614.965
360.231	614.465
360.236	615.765
360.241	618.065
360.246	619.165
360.25	619.064
360.255	627.864
360.26	648.664
360.265	670.864
360.27	658.364
360.274	632.063
360.279	616.063
360.284	614.963
360.289	614.863
360.293	617.263
360.298	637.363
360.303	709.862
360.308	821.062
360.313	842.862
360.317	752.662
360.322	657.762
360.327	628.462
360.332	636.061
360.336	647.161
360.341	644.061
360.346	627.661
360.351	616.561
360.356	614.56
360.36	614.46
360.365	618.36
360.37	619.86
360.375	618.26
360.38	617.06
360.384	615.959
360.389	615.259
360.394	616.959
360.399	616.359
360.403	615.859
360.408	616.358
360.413	615.258
360.418	617.558
360.423	616.958
360.427	616.758
360.432	617.858
360.437	618.057
360.442	621.957
360.447	624.357
360.451	627.957
360.456	628.657
360.461	631.956
360.466	648.556
360.47	663.556
360.475	668.856
360.48	660.956
360.485	651.556
360.49	648.955
360.494	688.855
360.499	884.255
360.504	1207.05
360.509	1348.15
360.514	1414.75
360.518	2115.45
360.523	3303.85
360.528	3499.75
360.533	2483.65
360.537	1431.35
360.542	1172.75
360.547	1271.65
360.552	1296.85
360.557	1136.15
360.561	1143.65
360.566	1593.45
360.571	2011.85
360.576	1740.95
360.581	1129.15
360.585	723.052
360.59	648.952
360.595	638.951
360.6	636.851
360.604	641.051
360.609	680.351
360.614	935.551
360.619	1693.65
360.624	2529.75
360.628	2494.55
360.633	1699.45
360.638	920.75
360.643	674.35
360.647	641.449
360.652	653.249
360.657	667.349
360.662	660.449
360.667	640.649
360.671	624.548
360.676	618.448
360.681	617.748
360.686	616.148
360.69	615.048
360.695	620.548
360.7	633.947
360.705	661.247
360.71	675.047
360.714	663.347
360.719	641.047
360.724	627.647
360.729	627.846
360.734	625.946
360.738	626.046
360.743	628.246
360.748	626.146
360.753	623.845
360.757	619.645
360.762	613.945
360.767	614.145
360.772	613.645
360.777	615.345
360.781	613.144
360.786	612.144
360.791	611.844
360.796	616.344
360.8	636.244
360.805	668.343
360.81	686.243
360.815	672.543
360.82	651.143
360.824	644.643
360.829	647.242
360.834	635.142
360.839	623.442
360.844	619.542
360.848	625.842
360.853	633.742
360.858	629.341
360.863	619.641
360.867	612.741
360.872	610.641
360.877	610.141
360.882	612.541
360.887	613.74
360.891	614.14
360.896	612.24
360.901	614.34
360.906	623.24
360.91	641.039
360.915	655.939
360.92	654.539
360.925	643.039
360.93	636.839
360.934	634.638
360.939	631.438
360.944	622.138
360.949	614.738
360.953	615.838
360.958	621.638
360.963	623.637
360.968	623.037
360.973	622.837
360.977	630.537
360.982	639.237
360.987	637.537
360.992	633.636
360.996	639.636
361.001	650.136
361.006	647.236
361.011	637.036
361.016	622.135
361.02	613.235
361.025	611.135
361.03	610.935
361.035	611.035
361.04	613.035
361.044	614.734
361.049	616.534
361.054	618.034
361.059	615.034
361.063	612.434
361.068	609.933
361.073	612.633
361.078	616.333
361.083	618.133
361.087	622.333
361.092	646.533
361.097	685.932
361.102	703.232
361.106	693.232
361.111	665.132
361.116	639.032
361.121	626.531
361.126	616.731
361.13	614.131
361.135	616.931
361.14	618.431
361.145	619.83
361.149	619.23
361.154	616.83
361.159	614.73
361.164	612.33
361.169	614.03
361.173	614.529
361.178	621.329
361.183	638.729
361.188	648.429
361.192	644.529
361.197	631.029
361.202	618.228
361.207	616.428
361.212	620.328
361.216	621.128
361.221	623.628
361.226	626.827
361.231	628.627
361.235	627.927
361.24	623.427
361.245	619.327
361.25	618.827
361.255	620.726
361.259	625.426
361.264	642.826
361.269	667.126
361.274	675.426
361.278	667.926
361.283	684.925
361.288	801.325
361.293	998.725
361.298	1079.72
361.302	981.325
361.307	805.824
361.312	679.824
361.317	648.424
361.321	637.324
361.326	631.424
361.331	630.323
361.336	628.823
361.341	631.723
361.345	636.823
361.35	637.323
361.355	637.423
361.36	633.222
361.364	633.122
361.369	636.722
361.374	643.922
361.379	654.422
361.384	675.122
361.388	733.621
361.393	823.121
361.398	866.221
361.403	818.721
361.407	728.82
361.412	661.52
361.417	640.52
361.422	643.32
361.427	647.32
361.431	643.52
361.436	641.319
361.441	640.919
361.446	639.619
361.45	643.219
361.455	646.419
361.46	655.219
361.465	676.318
361.469	694.318
361.474	691.418
361.479	674.918
361.484	648.418
361.489	638.917
361.493	637.217
361.498	636.317
361.503	636.517
361.508	636.817
361.512	635.917
361.517	640.416
361.522	641.916
361.527	653.116
361.532	668.116
361.536	680.116
361.541	681.915
361.546	697.315
361.551	758.215
361.555	824.515
361.56	818.915
361.565	763.815
361.57	702.214
361.575	687.714
361.579	687.214
361.584	676.014
361.589	664.714
361.594	656.914
361.598	653.013
361.603	652.113
361.608	656.713
361.613	658.013
361.618	659.913
361.622	664.812
361.627	672.012
361.632	678.512
361.637	687.012
361.641	705.612
361.646	766.711
361.651	1144.41
361.656	3513.01
361.66	11552
361.665	22551.2
361.67	26389.8
361.675	21326.8
361.68	11140.3
361.684	3313.91
361.689	1189.01
361.694	818.31
361.699	731.709
361.703	699.509
361.708	682.709
361.713	674.809
361.718	674.309
361.723	679.209
361.727	678.008
361.732	670.808
361.737	661.408
361.742	651.208
361.746	650.108
361.751	658.608
361.756	666.007
361.761	668.607
361.766	659.107
361.77	650.207
361.775	637.807
361.78	633.906
361.785	631.206
361.789	631.206
361.794	636.606
361.799	645.506
361.804	651.006
361.808	649.805
361.813	638.305
361.818	625.905
361.823	620.905
361.828	624.705
361.832	651.404
361.837	731.704
361.842	802.104
361.847	807.904
361.851	755.504
361.856	673.703
361.861	628.503
361.866	619.003
361.871	616.003
361.875	616.803
361.88	616.703
361.885	619.302
361.89	621.702
361.894	625.502
361.899	625.702
361.904	622.502
361.909	619.002
361.913	616.901
361.918	619.101
361.923	621.701
361.928	626.601
361.933	635.101
361.937	645.2
361.942	649.7
361.947	641.3
361.952	631.2
361.956	619
361.961	614.1
361.966	615.999
361.971	617.799
361.975	620.399
361.98	619.799
361.985	622.399
361.99	626.098
361.995	626.398
361.999	625.798
362.004	634.298
362.009	653.398
362.014	672.398
362.018	676.497
362.023	668.597
362.028	652.997
362.033	636.397
362.038	628.097
362.042	622.296
362.047	625.296
362.052	644.496
362.057	663.296
362.061	665.596
362.066	656.996
362.071	636.795
362.076	621.595
362.08	616.695
362.085	615.295
362.09	615.295
362.095	615.094
362.1	614.294
362.104	617.994
362.109	621.194
362.114	644.194
362.119	739.494
362.123	959.093
362.128	1124.39
362.133	1120.79
362.138	1048.69
362.142	1101.69
362.147	1331.79
362.152	1412.89
362.157	1302.69
362.162	1049.39
362.166	823.092
362.171	751.391
362.176	713.791
362.181	666.291
362.185	635.691
362.19	626.991
362.195	627.291
362.2	625.59
362.204	621.89
362.209	616.99
362.214	616.09
362.219	617.19
362.224	620.789
362.228	622.389
362.233	621.689
362.238	622.289
362.243	620.789
362.247	621.289
362.252	633.589
362.257	673.388
362.262	747.088
362.266	779.888
362.271	760.788
362.276	707.488
362.281	644.887
362.286	618.087
362.29	613.087
362.295	611.187
362.3	611.587
362.305	612.586
362.309	619.186
362.314	636.786
362.319	654.886
362.324	657.386
362.328	650.986
362.333	633.585
362.338	623.485
362.343	619.485
362.348	620.085
362.352	619.685
362.357	619.384
362.362	617.284
362.367	616.584
362.371	611.284
362.376	611.384
362.381	612.484
362.386	610.083
362.39	611.083
362.395	610.883
362.4	610.783
362.405	611.383
362.41	616.482
362.414	626.182
362.419	637.382
362.424	638.982
362.429	638.082
362.433	627.882
362.438	627.581
362.443	681.281
362.448	849.981
362.452	1046.68
362.457	1094.38
362.462	1036.98
362.467	876.58
362.471	710.78
362.476	646.68
362.481	622.18
362.486	612.58
362.491	611.179
362.495	610.979
362.5	610.379
362.505	610.479
362.51	611.579
362.514	610.679
362.519	611.278
362.524	613.578
362.529	614.078
362.533	622.378
362.538	632.178
362.543	636.377
362.548	633.677
362.553	624.977
362.557	616.377
362.562	616.077
362.567	620.976
362.572	625.776
362.576	624.576
362.581	621.576
362.586	618.576
362.591	622.276
362.595	646.175
362.6	668.675
362.605	672.075
362.61	662.975
362.614	647.675
362.619	652.774
362.624	708.374
362.629	848.974
362.634	1080.67
362.638	1183.07
362.643	1123.37
362.648	972.773
362.653	763.373
362.657	648.373
362.662	623.973
362.667	633.473
362.672	659.473
362.676	680.372
362.681	684.772
362.686	670.772
362.691	648.672
362.695	627.472
362.7	616.971
362.705	616.871
362.71	617.671
362.715	620.771
362.719	621.571
362.724	619.67
362.729	619.07
362.734	619.17
362.738	627.27
362.743	660.87
362.748	737.669
362.753	809.169
362.757	816.269
362.762	785.069
362.767	715.869
362.772	647.869
362.776	628.069
362.781	624.768
362.786	625.168
362.791	625.268
362.796	630.268
362.8	641.868
362.805	654.267
362.81	660.667
362.815	666.167
362.819	659.167
362.824	648.567
362.829	635.767
362.834	627.566
362.838	622.766
362.843	620.866
362.848	621.666
362.853	621.366
362.857	621.665
362.862	621.465
362.867	623.765
362.872	626.365
362.877	630.365
362.881	633.064
362.886	636.264
362.891	639.864
362.896	638.364
362.9	637.464
362.905	634.164
362.91	636.663
362.915	648.563
362.919	659.763
362.924	661.663
362.929	674.663
362.934	751.763
362.938	930.862
362.943	1093.86
362.948	1099.46
362.953	1019.86
362.957	857.962
362.962	700.961
362.967	646.561
362.972	636.061
362.977	638.661
362.981	686.261
362.986	876.861
362.991	1168.06
362.996	1286.26
363	1248.26
363.005	1117.06
363.01	873.36
363.015	735.759
363.019	693.059
363.024	665.159
363.029	648.359
363.034	636.859
363.038	635.459
363.043	640.858
363.048	661.458
363.053	687.558
363.057	694.058
363.062	692.158
363.067	682.957
363.072	670.657
363.077	668.957
363.081	673.757
363.086	714.257
363.091	973.556
363.096	2473.16
363.1	6543.76
363.105	10673
363.11	11166.2
363.115	9866.36
363.119	6633.05
363.124	2654.56
363.129	1057.16
363.134	735.655
363.138	675.055
363.143	653.355
363.148	646.454
363.153	642.254
363.158	640.754
363.162	640.754
363.167	655.154
363.172	729.654
363.177	868.053
363.181	948.853
363.186	937.953
363.191	883.653
363.196	758.852
363.2	665.752
363.205	635.352
363.21	632.752
363.215	629.452
363.219	629.652
363.224	628.351
363.229	626.051
363.234	624.951
363.238	624.951
363.243	622.851
363.248	621.75
363.253	620.35
363.257	627.85
363.262	650.55
363.267	676.65
363.272	681.75
363.276	672.849
363.281	657.849
363.286	637.049
363.291	629.849
363.296	625.949
363.3	626.049
363.305	623.248
363.31	616.348
363.315	613.348
363.319	613.848
363.324	613.648
363.329	614.048
363.334	615.447
363.338	617.847
363.343	628.347
363.348	685.547
363.353	812.347
363.357	887.746
363.362	866.446
363.367	832.146
363.372	731.446
363.376	643.946
363.381	648.445
363.386	719.145
363.391	800.445
363.395	799.545
363.4	782.245
363.405	732.145
363.41	651.644
363.415	620.144
363.419	616.444
363.424	618.244
363.429	634.344
363.434	654.243
363.438	663.543
363.443	660.243
363.448	650.743
363.453	636.543
363.457	627.242
363.462	628.942
363.467	629.242
363.472	629.942
363.476	624.942
363.481	617.842
363.486	615.341
363.491	614.441
363.495	615.341
363.5	613.641
363.505	613.941
363.51	613.141
363.514	611.24
363.519	611.34
363.524	612.44
363.529	614.14
363.533	618.84
363.538	620.039
363.543	619.139
363.548	621.239
363.552	624.339
363.557	628.339
363.562	629.839
363.567	627.038
363.572	629.238
363.576	642.238
363.581	668.438
363.586	673.738
363.591	665.137
363.595	655.737
363.6	645.637
363.605	694.637
363.61	794.337
363.614	848.337
363.619	830.436
363.624	801.736
363.629	714.636
363.633	651.536
363.638	673.936
363.643	764.735
363.648	837.635
363.652	838.435
363.657	818.735
363.662	748.435
363.667	664.535
363.671	624.534
363.676	618.234
363.681	623.334
363.686	667.834
363.69	831.334
363.695	1054.13
363.7	1137.63
363.705	1134.33
363.709	1045.33
363.714	857.933
363.719	713.033
363.724	643.432
363.728	623.832
363.733	618.432
363.738	616.232
363.743	614.432
363.748	612.531
363.752	612.531
363.757	611.831
363.762	611.531
363.767	612.631
363.771	610.431
363.776	611.33
363.781	612.93
363.786	620.73
363.79	622.828
363.795	623.818
363.8	628.28
363.805	633.014
363.808	634.552
363.813	627.644
363.818	621.137
363.822	616.729
363.827	614.821
363.832	614.214
363.837	616.606
363.842	620.699
363.846	620.991
363.851	621.283
363.856	622.976
363.861	622.668
363.866	620.26
363.87	618.053
363.875	616.745
363.88	621.838
363.885	635.43
363.89	669.822
363.894	748.815
363.899	1083.61
363.904	1594.1
363.909	1464.69
363.914	892.484
363.918	713.776
363.923	807.569
363.928	1245.16
363.933	2036.15
363.938	2159.85
363.942	1386.64
363.947	881.531
363.952	732.423
363.957	662.215
363.962	640.608
363.966	636
363.971	631.493
363.976	633.685
363.981	645.177
363.986	666.57
363.99	654.362
363.995	625.054
364	614.047
364.005	612.739
364.01	615.131
364.014	613.024
364.019	613.216
364.024	613.409
364.029	615.101
364.034	624.193
364.038	654.986
364.043	745.978
364.048	880.97
364.053	1008.56
364.057	1364.16
364.062	1735.05
364.067	1431.44
364.072	909.032
364.077	701.125
364.081	647.117
364.086	643.709
364.091	652.702
364.096	653.294
364.101	698.487
364.105	777.679
364.11	759.771
364.115	681.464
364.12	661.256
364.125	674.248
364.129	697.841
364.134	697.933
364.139	654.125
364.144	627.418
364.149	617.81
364.153	618.203
364.158	615.195
364.163	613.087
364.168	613.48
364.173	611.772
364.177	611.164
364.182	612.357
364.187	615.649
364.192	620.342
364.197	641.234
364.201	676.426
364.206	675.019
364.211	638.411
364.216	618.803
364.221	621.396
364.225	648.988
364.23	721.28
364.235	751.573
364.24	679.465
364.245	646.758
364.249	668.75
364.254	682.642
364.259	645.635
364.264	619.827
364.269	613.619
364.273	611.312
364.278	610.904
364.283	608.696
364.288	609.689
364.292	609.781
364.297	608.474
364.302	610.566
364.307	611.158
364.312	613.451
364.316	622.843
364.321	634.235
364.326	630.728
364.331	618.42
364.336	611.813
364.34	611.905
364.345	613.797
364.35	620.29
364.355	633.182
364.36	637.974
364.364	625.467
364.369	615.059
364.374	610.252
364.379	609.844
364.384	611.836
364.388	610.429
364.393	610.921
364.398	609.213
364.403	610.306
364.408	614.398
364.412	609.19
364.417	636.083
364.422	625.575
364.427	613.667
364.432	609.36
364.436	608.752
364.441	608.945
364.446	609.737
364.451	611.329
364.456	614.222
364.46	625.614
364.465	638.307
364.47	687.299
364.475	894.891
364.479	1180.58
364.484	1106.58
364.489	787.968
364.494	646.661
364.499	618.953
364.503	613.246
364.508	612.738
364.513	617.43
364.518	622.023
364.523	624.015
364.527	615.907
364.532	613.8
364.537	610.892
364.542	610.585
364.547	610.577
364.551	612.669
364.556	617.062
364.561	639.354
364.566	729.346
364.571	934.939
364.575	1056.13
364.58	905.823
364.585	721.816
364.59	634.408
364.594	616.401
364.599	612.193
364.604	613.685
364.609	612.478
364.614	611.97
364.618	613.762
364.623	619.655
364.628	635.547
364.633	662.44
364.638	666.432
364.642	639.824
364.647	629.317
364.652	637.309
364.657	652.601
364.662	730.694
364.666	1083.09
364.671	1745.48
364.676	1840.27
364.681	1201.26
364.686	831.656
364.69	741.448
364.695	664.14
364.7	624.833
364.705	616.925
364.709	614.117
364.714	621.01
364.719	631.702
364.724	638.995
364.729	640.187
364.733	648.679
364.738	655.572
364.743	658.364
364.748	637.956
364.753	623.449
364.757	620.041
364.762	618.833
364.767	619.526
364.772	631.718
364.777	637.411
364.781	628.503
364.786	615.595
364.791	610.488
364.796	609.68
364.801	608.973
364.805	610.865
364.81	616.557
364.815	634.749
364.82	671.142
364.824	678.734
364.829	641.127
364.834	620.519
364.839	625.011
364.844	641.404
364.848	653.296
364.853	638.888
364.858	621.681
364.863	612.873
364.868	611.265
364.872	612.558
364.877	614.25
364.882	616.843
364.887	626.135
364.892	656.627
364.896	814.92
364.901	1232.21
364.906	1346.8
364.911	924.797
364.915	677.489
364.92	639.082
364.925	668.574
364.93	706.866
364.935	678.159
364.939	633.551
364.944	618.844
364.949	617.836
364.954	619.328
364.959	620.921
364.963	617.313
364.968	614.705
364.973	613.198
364.978	615.19
364.983	613.282
364.987	614.575
364.992	616.767
364.997	625.159
365.002	669.552
365.006	809.144
365.011	1066.44
365.016	1725.03
365.021	2379.12
365.026	1802.11
365.03	953.206
365.035	684.799
365.04	658.791
365.045	657.083
365.05	643.076
365.054	655.368
365.059	681.86
365.064	691.453
365.069	685.345
365.074	656.737
365.078	627.33
365.083	614.322
365.088	612.514
365.093	614.207
365.097	615.599
365.102	612.892
365.107	612.884
365.112	613.177
365.117	613.669
365.121	614.061
365.126	620.953
365.131	629.946
365.136	626.138
365.141	618.031
365.145	614.323
365.15	613.115
365.155	612.408
365.16	614.4
365.164	614.292
365.169	614.785
365.174	612.677
365.179	612.27
365.184	615.762
365.188	624.454
365.193	638.847
365.198	642.939
365.203	626.232
365.208	620.024
365.212	623.016
365.217	625.209
365.222	619.101
365.227	615.093
365.232	615.186
365.236	614.578
365.241	619.17
365.246	623.763
365.251	636.455
365.255	644.348
365.26	639.14
365.265	644.832
365.27	669.224
365.275	681.817
365.279	661.709
365.284	635.501
365.289	625.194
365.294	621.886
365.299	622.579
365.303	622.371
365.308	624.364
365.313	631.456
365.318	649.248
365.322	711.341
365.327	1025.23
365.332	2471.43
365.337	6124.42
365.342	7810.01
365.346	4449.9
365.351	1525.49
365.356	768.387
365.361	653.58
365.366	633.272
365.37	627.064
365.375	623.757
365.38	623.149
365.385	623.541
365.389	630.334
365.394	636.026
365.399	628.219
365.404	623.911
365.409	634.303
365.413	644.696
365.418	638.788
365.423	627.28
365.428	633.273
365.433	647.265
365.437	687.758
365.442	894.15
365.447	1217.64
365.452	1112.53
365.456	744.227
365.461	630.519
365.466	612.812
365.471	612.104
365.476	610.596
365.48	613.589
365.485	620.881
365.49	627.174
365.495	617.466
365.5	610.958
365.504	610.051
365.509	611.743
365.514	621.635
365.519	665.228
365.523	747.62
365.528	748.412
365.533	691.905
365.538	659.397
365.543	639.79
365.547	627.782
365.552	616.174
365.557	612.067
365.562	613.559
365.567	619.151
365.571	620.144
365.576	627.336
365.581	674.228
365.586	771.421
365.59	779.713
365.595	682.906
365.6	623.598
365.605	609.59
365.61	609.383
365.614	607.675
365.619	607.168
365.624	608.96
365.629	608.252
365.633	610.545
365.638	615.737
365.643	617.529
365.648	615.922
365.653	612.014
365.657	614.107
365.662	622.999
365.667	659.691
365.672	798.784
365.677	1061.88
365.681	1084.17
365.686	835.661
365.691	684.953
365.696	640.045
365.7	661.538
365.705	723.83
365.71	728.822
365.715	657.015
365.72	618.507
365.724	609.4
365.729	610.892
365.734	610.884
365.739	611.677
365.743	614.669
365.748	632.562
365.753	684.454
365.758	708.446
365.763	662.839
365.767	638.331
365.772	629.523
365.777	619.816
365.782	613.208
365.787	611.301
365.791	608.393
365.796	607.985
365.801	609.378
365.806	608.97
365.81	608.762
365.815	610.955
365.82	616.447
365.825	644.24
365.83	747.232
365.834	894.324
365.839	893.716
365.844	773.809
365.849	795.101
365.854	847.794
365.858	773.086
365.863	691.278
365.868	770.471
365.873	913.163
365.877	855.355
365.882	691.248
365.887	628.24
365.892	617.633
365.897	620.625
365.901	620.017
365.906	621.91
365.911	625.702
365.916	621.594
365.92	622.687
365.925	644.579
365.93	708.671
365.935	776.064
365.94	747.656
365.944	671.849
365.949	674.841
365.954	798.233
365.959	1105.73
365.963	1328.72
365.968	1070.81
365.973	904.403
365.978	1181.2
365.983	1245.49
365.987	892.68
365.992	666.072
365.997	618.065
366.002	610.857
366.007	613.849
366.011	612.142
366.016	611.034
366.021	609.727
366.026	610.619
366.03	617.011
366.035	634.504
366.04	663.996
366.045	677.288
366.05	644.381
366.054	614.173
366.059	607.965
366.064	606.558
366.069	606.35
366.073	606.343
366.078	607.335
366.083	607.427
366.088	605.42
366.093	605.512
366.097	605.604
366.102	605.897
366.107	606.389
366.112	607.182
366.116	609.674
366.121	611.166
366.126	609.159
366.131	609.651
366.136	614.743
366.14	622.636
366.145	625.328
366.15	621.421
366.155	612.413
366.159	607.905
366.164	609.498
366.169	612.79
366.174	610.482
366.179	608.675
366.183	608.567
366.188	610.059
366.193	608.252
366.198	608.444
366.202	607.937
366.207	607.529
366.212	609.221
366.217	614.214
366.222	636.006
366.226	732.099
366.231	938.891
366.236	1000.28
366.241	823.075
366.246	802.768
366.25	1189.96
366.255	1598.15
366.26	1293.05
366.265	795.837
366.269	637.53
366.274	613.022
366.279	609.715
366.284	612.807
366.289	629.699
366.293	705.292
366.298	869.084
366.303	934.376
366.308	788.769
366.312	655.061
366.317	622.854
366.322	616.246
366.327	612.438
366.332	610.531
366.336	610.123
366.341	608.115
366.346	608.508
366.351	609.2
366.355	611.492
366.36	618.385
366.365	618.077
366.37	610.87
366.375	608.862
366.379	609.454
366.384	610.947
366.389	610.839
366.394	607.131
366.398	609.124
366.403	623.916
366.408	650.809
366.413	648.601
366.418	622.393
366.422	613.885
366.427	618.678
366.432	623.17
366.437	617.863
366.441	618.755
366.446	623.647
366.451	628.94
366.456	641.332
366.461	639.725
366.465	622.617
366.47	609.009
366.475	607.802
366.48	611.794
366.484	616.086
366.489	630.279
366.494	639.771
366.499	677.263
366.504	794.456
366.508	853.348
366.513	738.541
366.518	638.133
366.523	611.325
366.527	607.418
366.532	607.61
366.537	611.502
366.542	614.095
366.546	612.987
366.551	609.08
366.556	605.772
366.561	604.464
366.566	606.057
366.57	605.349
366.575	606.841
366.58	606.434
366.585	608.826
366.589	621.419
366.594	668.911
366.599	726.803
366.604	702.996
366.609	646.388
366.613	631.78
366.618	628.473
366.623	626.565
366.628	664.857
366.632	793.35
366.637	906.442
366.642	802.235
366.647	662.527
366.652	616.819
366.656	615.012
366.661	636.104
366.666	681.296
366.671	692.089
366.675	659.881
366.68	720.474
366.685	1031.17
366.69	1409.46
366.695	1239.15
366.699	831.243
366.704	659.935
366.709	621.728
366.714	614.62
366.718	612.413
366.723	624.605
366.728	644.697
366.733	643.99
366.738	620.782
366.742	610.674
366.747	611.467
366.752	620.059
366.757	620.351
366.761	612.044
366.766	608.636
366.771	616.129
366.776	660.221
366.78	812.013
366.785	926.006
366.79	811.198
366.795	670.59
366.8	620.783
366.804	609.775
366.809	605.268
366.814	605.86
366.819	603.952
366.823	607.145
366.828	608.537
366.833	616.529
366.838	620.722
366.843	627.414
366.847	659.406
366.852	674.999
366.857	645.091
366.862	613.784
366.866	611.076
366.871	641.368
366.876	709.261
366.881	722.253
366.885	653.145
366.89	613.338
366.895	607.03
366.9	608.622
366.905	615.015
366.909	621.407
366.914	619.1
366.919	613.392
366.924	614.584
366.928	624.177
366.933	626.969
366.938	620.961
366.943	619.054
366.948	616.846
366.952	609.539
366.957	605.231
366.962	607.323
366.967	610.016
366.971	614.408
366.976	639.7
366.981	744.293
366.986	841.485
366.991	790.478
366.995	717.17
367	672.062
367.005	626.955
367.01	625.847
367.014	663.339
367.019	698.432
367.024	664.924
367.029	618.016
367.033	607.009
367.038	606.001
367.043	605.994
367.048	605.586
367.053	608.178
367.057	615.571
367.062	632.963
367.067	634.155
367.072	618.448
367.076	608.24
367.081	605.832
367.086	606.425
367.091	612.917
367.095	620.11
367.1	618.202
367.105	613.794
367.11	624.687
367.115	637.879
367.119	632.471
367.124	623.464
367.129	653.956
367.134	709.049
367.138	712.941
367.143	654.533
367.148	618.926
367.153	610.218
367.158	608.01
367.162	617.703
367.167	648.195
367.172	692.888
367.177	681.78
367.181	632.672
367.186	609.765
367.191	606.857
367.196	610.849
367.2	632.042
367.205	697.034
367.21	755.726
367.215	713.319
367.22	637.411
367.224	611.404
367.229	607.696
367.234	615.988
367.239	653.581
367.243	716.073
367.248	697.965
367.253	633.058
367.258	607.75
367.262	606.143
367.267	604.435
367.272	608.127
367.277	613.22
367.282	621.512
367.286	618.604
367.291	610.897
367.296	608.989
367.301	610.182
367.305	610.274
367.31	606.966
367.315	606.359
367.32	611.251
367.324	629.643
367.329	662.836
367.334	666.328
367.339	633.92
367.344	614.913
367.348	611.905
367.353	617.198
367.358	624.79
367.363	655.582
367.367	794.875
367.372	1147.47
367.377	1326.96
367.382	1015.35
367.387	705.044
367.391	623.937
367.396	611.229
367.401	613.921
367.406	618.614
367.41	631.706
367.415	633.398
367.42	622.691
367.425	612.283
367.429	614.775
367.434	642.568
367.439	703.76
367.444	713.553
367.448	658.645
367.453	639.637
367.458	706.63
367.463	936.522
367.468	1492.51
367.472	2125.11
367.477	1851.6
367.482	1089.29
367.487	716.484
367.491	627.476
367.496	614.769
367.501	611.061
367.506	609.253
367.51	611.746
367.515	611.838
367.52	611.73
367.525	608.523
367.53	609.615
367.534	615.808
367.539	646.4
367.544	706.092
367.549	719.785
367.553	660.877
367.558	618.369
367.563	609.162
367.568	610.254
367.572	612.647
367.577	615.139
367.582	620.731
367.587	661.924
367.592	832.816
367.596	1075.91
367.601	1012.5
367.606	757.593
367.611	636.185
367.615	617.878
367.62	622.17
367.625	632.563
367.63	639.655
367.634	627.947
367.639	615.54
367.644	621.232
367.649	627.124
367.654	635.117
367.658	637.409
367.663	628.602
367.668	617.494
367.673	612.486
367.677	613.179
367.682	614.171
367.687	616.763
367.692	613.856
367.696	613.248
367.701	612.141
367.706	612.733
367.711	613.425
367.715	614.818
367.72	620.61
367.725	631.102
367.73	642.095
367.735	689.787
367.739	842.979
367.744	989.972
367.749	886.664
367.754	695.956
367.758	637.649
367.763	624.841
367.768	619.634
367.773	619.226
367.777	622.218
367.782	629.311
367.787	634.303
367.792	630.296
367.797	627.088
367.801	621.48
367.806	623.373
367.811	627.265
367.816	630.457
367.82	629.85
367.825	628.242
367.83	627.034
367.835	627.027
367.839	630.219
367.844	630.212
367.849	634.904
367.854	640.596
367.858	652.589
367.863	717.081
367.868	1091.17
367.873	2222.67
367.878	3330.26
367.882	2624.95
367.887	1291.54
367.892	753.735
367.897	668.428
367.901	711.72
367.906	785.812
367.911	786.805
367.916	798.097
367.92	995.689
367.925	1072.68
367.93	834.474
367.935	665.267
367.939	632.659
367.944	628.151
367.949	628.744
367.954	626.036
367.959	626.729
367.963	627.821
367.968	627.313
367.973	626.706
367.978	625.998
367.982	627.99
367.987	631.983
367.992	635.975
367.997	658.067
368.001	695.86
368.006	713.252
368.011	691.245
368.016	655.837
368.02	640.429
368.025	640.022
368.03	654.814
368.035	659.106
368.04	647.699
368.044	635.591
368.049	633.583
368.054	636.376
368.059	645.068
368.063	656.26
368.068	656.453
368.073	650.345
368.078	651.038
368.082	656.13
368.087	659.622
368.092	664.915
368.097	667.907
368.101	688.6
368.106	762.292
368.111	1225.38
368.116	4046.68
368.12	13923.7
368.125	25779.4
368.13	21515.9
368.135	8331.75
368.14	2055.54
368.144	892.531
368.149	737.523
368.154	729.316
368.159	739.408
368.163	774
368.168	914.693
368.173	975.085
368.178	823.577
368.182	702.57
368.187	698.162
368.192	693.154
368.197	662.347
368.201	642.939
368.206	637.832
368.211	639.424
368.216	636.816
368.22	637.709
368.225	634.501
368.23	642.893
368.235	722.186
368.24	1100.28
368.244	1941.77
368.249	2442.86
368.254	2041.16
368.259	1392.85
368.263	906.24
368.268	680.833
368.273	632.725
368.278	624.417
368.282	622.31
368.287	633.002
368.292	652.094
368.297	684.187
368.301	857.979
368.306	1384.07
368.311	1786.26
368.316	1392.46
368.32	845.849
368.325	654.741
368.33	624.033
368.335	614.226
368.34	612.718
368.344	616.21
368.349	619.103
368.354	615.395
368.359	613.687
368.363	612.98
368.368	622.472
368.373	668.565
368.378	813.257
368.382	927.949
368.387	834.142
368.392	680.434
368.397	623.426
368.401	614.019
368.406	627.611
368.411	692.104
368.416	808.096
368.42	837.488
368.425	737.081
368.43	668.273
368.435	657.465
368.44	651.558
368.444	635.85
368.449	625.043
368.454	619.735
368.459	617.927
368.463	623.32
368.468	659.712
368.473	735.004
368.478	755.197
368.482	682.789
368.487	624.481
368.492	608.774
368.497	608.766
368.501	607.759
368.506	606.451
368.511	606.943
368.516	607.436
368.52	610.128
368.525	618.22
368.53	631.513
368.535	629.905
368.539	617.598
368.544	608.49
368.549	610.682
368.554	617.675
368.559	621.167
368.563	615.659
368.568	611.352
368.573	609.044
368.578	609.536
368.582	606.929
368.587	605.421
368.592	605.614
368.597	606.206
368.601	606.598
368.606	611.091
368.611	622.283
368.616	633.876
368.62	626.268
368.625	613.36
368.63	611.753
368.635	619.045
368.639	628.537
368.644	625.73
368.649	620.322
368.654	617.814
368.658	621.407
368.663	624.199
368.668	616.491
368.673	610.284
368.677	607.676
368.682	608.269
368.687	617.761
368.692	628.253
368.697	629.446
368.701	629.038
368.706	645.231
368.711	805.423
368.716	1456.41
368.72	2565.71
368.725	2752
368.73	1705.59
368.735	912.485
368.739	705.577
368.744	672.569
368.749	693.662
368.754	754.554
368.758	797.646
368.763	739.139
368.768	652.731
368.773	620.524
368.777	617.516
368.782	612.808
368.787	610.301
368.792	611.493
368.796	611.385
368.801	612.678
368.806	614.27
368.811	625.763
368.815	681.855
368.82	755.647
368.825	740.84
368.83	665.632
368.834	622.124
368.839	624.017
368.844	651.309
368.849	670.302
368.854	661.394
368.858	652.486
368.863	672.679
368.868	692.671
368.873	674.063
368.877	639.156
368.882	619.648
368.887	614.84
368.892	644.033
368.896	764.925
368.901	959.018
368.906	972.21
368.911	786.602
368.915	649.295
368.92	616.687
368.925	618.079
368.93	649.472
368.934	779.164
368.939	997.057
368.944	1047.45
368.949	902.941
368.953	749.834
368.958	679.126
368.963	639.518
368.968	626.711
368.972	631.703
368.977	637.395
368.982	623.588
368.987	610.28
368.991	610.473
368.996	633.065
369.001	685.257
369.006	722.15
369.01	686.142
369.015	642.335
369.02	630.927
369.025	622.519
369.029	613.811
369.034	609.504
369.039	611.696
369.044	619.089
369.048	622.381
369.053	618.873
369.058	629.466
369.063	686.158
369.068	769.05
369.072	784.143
369.077	705.335
369.082	629.728
369.087	609.22
369.091	614.812
369.096	646.105
369.101	690.797
369.106	707.789
369.11	678.682
369.115	632.474
369.12	608.067
369.125	605.559
369.129	604.951
369.134	606.744
369.139	623.436
369.144	666.128
369.148	719.121
369.153	709.713
369.158	656.405
369.163	623.598
369.167	620.39
369.172	632.183
369.177	675.175
369.182	757.267
369.186	848.56
369.191	817.052
369.196	703.544
369.201	627.837
369.205	609.229
369.21	603.722
369.215	601.714
369.22	601.806
369.224	602.299
369.229	605.491
369.234	609.283
369.239	612.576
369.243	608.068
369.248	604.161
369.253	603.153
369.258	602.745
369.262	602.938
369.267	604.23
369.272	608.322
369.277	620.415
369.281	629.407
369.286	623.7
369.291	611.392
369.296	605.184
369.3	604.677
369.305	604.569
369.31	607.661
369.315	619.154
369.319	641.746
369.324	654.938
369.329	643.531
369.334	633.523
369.339	626.416
369.343	615.608
369.348	610.6
369.353	624.593
369.357	704.885
369.362	858.677
369.367	921.07
369.372	809.662
369.376	673.554
369.381	623.647
369.386	609.639
369.391	601.832
369.396	602.324
369.4	600.616
369.405	601.509
369.41	602.001
369.415	602.893
369.419	604.386
369.424	607.978
369.429	623.371
369.434	666.763
369.438	715.555
369.443	701.348
369.448	647.64
369.453	610.633
369.457	601.825
369.462	601.317
369.467	602.509
369.472	606.302
369.476	619.594
369.481	630.487
369.486	624.779
369.491	609.471
369.495	602.564
369.5	602.156
369.505	606.548
369.51	615.541
369.514	616.733
369.519	611.126
369.524	612.318
369.529	618.21
369.533	624.103
369.538	617.095
369.543	607.687
369.548	604.48
369.552	604.472
369.557	613.065
369.562	633.357
369.567	644.849
369.571	632.242
369.576	618.034
369.581	612.726
369.586	625.019
369.59	665.811
369.595	713.104
369.6	705.296
369.605	652.888
369.609	617.581
369.614	605.273
369.619	603.865
369.624	601.658
369.628	602.25
369.633	605.343
369.638	609.635
369.643	612.827
369.647	625.919
369.652	675.112
369.657	739.904
369.662	761.697
369.666	712.589
369.671	646.681
369.676	612.174
369.681	606.566
369.685	609.359
369.69	623.751
369.695	637.543
369.7	650.036
369.704	653.028
369.709	638.62
369.714	617.213
369.719	604.705
369.723	601.598
369.728	609.19
369.733	617.182
369.738	619.575
369.742	614.867
369.747	605.559
369.752	602.652
369.757	602.044
369.761	603.636
369.766	604.629
369.771	613.121
369.776	651.314
369.78	767.306
369.785	894.398
369.79	864.091
369.795	733.183
369.799	639.575
369.804	612.568
369.809	606.66
369.814	607.252
369.818	609.345
369.823	605.937
369.828	605.93
369.833	609.222
369.837	612.714
369.842	633.707
369.847	746.699
369.852	978.591
369.856	1114.88
369.861	965.076
369.866	735.169
369.871	628.261
369.875	608.653
369.88	607.246
369.885	605.938
369.889	606.53
369.894	606.523
369.899	604.515
369.904	603.607
369.909	603
369.913	607.992
369.918	612.785
369.923	619.277
369.927	626.169
369.932	640.862
369.937	636.654
369.942	620.547
369.946	606.439
369.951	602.931
369.956	603.824
369.961	606.716
369.965	609.908
369.97	640.301
369.975	695.293
369.98	727.486
369.984	694.078
369.989	640.57
369.994	611.963
369.999	604.055
370.003	602.847
370.008	603.94
370.013	604.432
370.018	605.724
370.022	608.717
370.027	607.609
370.032	607.002
370.037	603.294
370.041	603.786
370.046	603.379
370.051	607.671
370.056	614.263
370.06	616.356
370.065	613.448
370.07	608.44
370.075	609.033
370.079	620.425
370.084	646.417
370.089	662.31
370.094	647.102
370.098	624.995
370.103	621.487
370.108	633.379
370.113	640.672
370.117	633.964
370.122	622.756
370.127	621.449
370.132	643.641
370.136	733.333
370.141	925.326
370.146	1056.22
370.151	954.211
370.155	763.403
370.16	639.895
370.165	609.988
370.17	605.68
370.174	602.373
370.179	603.765
370.184	605.057
370.189	608.45
370.193	617.342
370.198	628.734
370.203	632.327
370.208	626.619
370.212	616.212
370.217	610.904
370.222	615.796
370.227	647.289
370.231	699.681
370.236	751.173
370.241	825.566
370.245	954.658
370.25	1016.05
370.255	937.543
370.26	855.735
370.264	1114.13
370.269	1772.02
370.274	2199.31
370.279	1854.2
370.283	1174.4
370.288	739.389
370.293	633.682
370.298	617.574
370.302	613.567
370.307	612.659
370.312	615.051
370.317	616.944
370.321	619.936
370.326	617.728
370.331	618.721
370.336	634.413
370.34	703.305
370.345	809.198
370.35	861.29
370.355	802.783
370.359	701.675
370.364	643.867
370.369	623.459
370.374	623.852
370.378	647.544
370.383	765.337
370.388	1015.13
370.393	1222.12
370.397	1145.21
370.402	886.506
370.407	689.399
370.411	631.591
370.416	621.383
370.421	618.576
370.426	617.368
370.43	622.561
370.435	624.153
370.44	633.145
370.445	641.338
370.449	667.73
370.454	783.022
370.459	967.215
370.464	1035.11
370.468	935.9
370.473	761.992
370.478	663.084
370.483	632.876
370.487	626.669
370.492	629.361
370.497	628.654
370.502	628.146
370.506	625.038
370.511	624.931
370.516	623.123
370.521	624.615
370.525	627.808
370.53	649.4
370.535	687.093
370.54	708.385
370.544	700.277
370.549	667.37
370.554	647.362
370.559	637.854
370.563	640.447
370.568	648.139
370.573	646.432
370.577	640.724
370.582	637.016
370.587	639.809
370.592	657.501
370.596	672.393
370.601	692.386
370.606	703.078
370.611	687.17
370.615	655.863
370.62	635.455
370.625	632.048
370.63	634.44
370.634	636.032
370.639	636.825
370.644	640.417
370.649	653.809
370.653	686.902
370.658	733.494
370.663	746.286
370.668	722.679
370.672	691.971
370.677	680.064
370.682	705.456
370.687	865.648
370.691	1911.54
370.696	6712.73
370.701	16901.1
370.706	24754.7
370.71	21899
370.715	12080.1
370.72	3804.09
370.724	1234.09
370.729	795.88
370.734	705.072
370.739	673.965
370.743	661.957
370.748	655.249
370.753	668.442
370.758	703.934
370.762	735.726
370.767	727.019
370.772	684.811
370.777	645.703
370.781	635.496
370.786	633.588
370.791	632.981
370.796	627.973
370.8	626.065
370.805	623.158
370.81	622.35
370.815	618.442
370.819	616.835
370.824	615.227
370.829	613.419
370.833	609.612
370.838	608.104
370.843	609.697
370.848	616.689
370.852	633.381
370.857	634.474
370.862	627.366
370.867	614.058
370.871	608.051
370.876	603.843
370.881	604.436
370.886	603.728
370.89	606.02
370.895	611.413
370.9	626.205
370.905	632.297
370.909	622.19
370.914	610.482
370.919	605.374
370.924	605.667
370.928	612.659
370.933	638.052
370.938	669.444
370.942	680.936
370.947	656.329
370.952	624.821
370.957	607.413
370.961	607.706
370.966	617.098
370.971	661.591
370.976	757.883
370.98	836.475
370.985	819.968
370.99	727.66
370.995	642.352
370.999	610.445
371.004	602.637
371.009	602.829
371.014	601.422
371.018	601.814
371.023	600.907
371.028	605.499
371.033	613.291
371.037	621.784
371.042	624.276
371.047	636.168
371.051	668.961
371.056	710.153
371.061	739.746
371.066	721.038
371.07	672.43
371.075	628.723
371.08	607.115
371.085	601.107
371.089	601
371.094	602.692
371.099	603.484
371.104	607.677
371.108	623.969
371.113	645.862
371.118	654.254
371.122	648.646
371.127	634.839
371.132	632.131
371.137	625.023
371.141	614.616
371.146	603.808
371.151	601.201
371.156	600.493
371.16	603.685
371.165	607.378
371.17	621.47
371.175	646.362
371.179	683.755
371.184	719.147
371.189	726.24
371.194	693.132
371.198	643.324
371.203	616.117
371.208	616.709
371.212	632.102
371.217	637.594
371.222	632.686
371.227	617.279
371.231	609.871
371.236	607.763
371.241	615.555
371.246	620.048
371.25	620.34
371.255	615.833
371.26	606.425
371.265	602.317
371.269	599.81
371.274	600.802
371.279	600.395
371.284	600.887
371.288	601.879
371.293	604.672
371.298	604.964
371.302	603.756
371.307	604.649
371.312	604.541
371.317	609.233
371.321	640.326
371.326	771.018
371.331	1012.61
371.336	1157.9
371.34	1085.7
371.345	869.788
371.35	676.48
371.355	625.173
371.359	625.865
371.364	635.757
371.369	637.549
371.374	638.742
371.378	651.034
371.383	684.127
371.388	742.319
371.392	826.211
371.397	855.804
371.402	826.396
371.407	830.889
371.411	919.881
371.416	982.973
371.421	925.766
371.426	782.058
371.43	654.75
371.435	614.943
371.44	610.235
371.445	607.927
371.449	607.02
371.454	606.212
371.459	608.705
371.463	607.997
371.468	608.889
371.473	611.482
371.478	623.674
371.482	637.766
371.487	664.259
371.492	708.251
371.497	749.744
371.501	755.536
371.506	730.928
371.511	734.621
371.516	778.213
371.52	790.205
371.525	759.998
371.53	701.09
371.534	646.482
371.539	623.375
371.544	610.367
371.549	604.26
371.553	607.552
371.558	620.544
371.563	636.437
371.568	648.829
371.572	665.321
371.577	717.014
371.582	770.306
371.587	777.499
371.591	734.791
371.596	660.883
371.601	618.476
371.605	626.268
371.61	724.46
371.615	934.353
371.62	1132.55
371.624	1191.34
371.629	1064.33
371.634	842.422
371.639	688.515
371.643	622.207
371.648	606.299
371.653	601.492
371.658	602.684
371.662	602.076
371.667	601.269
371.672	603.461
371.676	602.154
371.681	603.846
371.686	604.738
371.691	607.731
371.695	606.723
371.7	606.215
371.705	606.808
371.71	609.7
371.714	626.292
371.719	757.785
371.724	1250.28
371.728	1888.57
371.733	2031.06
371.738	1731.05
371.743	1134.45
371.747	709.739
371.752	622.231
371.757	610.024
371.762	606.916
371.766	611.109
371.771	618.801
371.776	635.793
371.781	644.386
371.785	639.878
371.79	624.771
371.795	613.063
371.799	615.855
371.804	628.348
371.809	632.34
371.814	627.432
371.818	616.625
371.823	608.417
371.828	610.009
371.833	616.302
371.837	670.294
371.842	894.686
371.847	1241.58
371.852	1401.77
371.856	1303.16
371.861	1016.16
371.866	726.548
371.87	623.241
371.875	606.633
371.88	602.425
371.885	602.218
371.889	602.31
371.894	602.903
371.899	606.595
371.904	605.887
371.908	605.48
371.913	604.872
371.918	601.964
371.922	601.457
371.927	601.549
371.932	600.841
371.937	606.034
371.941	627.226
371.946	706.119
371.951	820.011
371.956	929.703
371.96	966.696
371.965	893.888
371.97	781.78
371.974	672.973
371.979	614.265
371.984	601.258
371.989	600.75
371.993	599.542
371.998	599.035
372.003	596.427
372.008	598.32
372.012	601.412
372.017	604.904
372.022	606.697
372.026	603.189
372.031	601.381
372.036	598.774
372.041	597.266
372.045	598.958
372.05	600.951
372.055	601.943
372.06	600.836
372.064	600.728
372.069	601.72
372.074	614.813
372.078	634.705
372.083	648.497
372.088	643.59
372.093	629.782
372.097	608.474
372.102	598.867
372.107	596.059
372.112	597.751
372.116	602.844
372.121	635.136
372.126	755.729
372.13	927.721
372.135	989.213
372.14	935.306
372.145	809.498
372.149	658.291
372.154	612.783
372.159	610.175
372.164	616.468
372.168	617.96
372.173	614.352
372.178	608.845
372.182	602.937
372.187	603.629
372.192	604.522
372.197	606.814
372.201	605.807
372.206	603.499
372.211	601.391
372.216	600.684
372.22	601.776
372.225	603.868
372.23	602.561
372.234	603.653
372.239	602.046
372.244	599.638
372.249	599.63
372.253	600.123
372.258	601.115
372.263	601.107
372.268	599
372.272	597.992
372.277	600.884
372.282	608.377
372.286	630.169
372.291	665.462
372.296	683.454
372.301	675.946
372.305	655.139
372.31	626.631
372.315	622.523
372.32	627.416
372.324	625.808
372.329	623.401
372.334	621.193
372.338	632.385
372.343	649.678
372.348	669.77
372.353	738.862
372.357	825.755
372.362	831.147
372.367	799.239
372.372	715.432
372.376	625.224
372.381	602.317
372.386	596.709
372.39	597.801
372.395	597.594
372.4	597.286
372.405	598.279
372.409	604.471
372.414	633.063
372.419	694.155
372.424	744.748
372.428	742.24
372.433	710.133
372.438	654.925
372.442	616.217
372.447	613.01
372.452	616.802
372.457	615.395
372.461	613.687
372.466	608.779
372.471	605.672
372.476	606.464
372.48	603.056
372.485	603.149
372.49	600.941
372.494	598.733
372.499	598.826
372.504	600.818
372.509	600.31
372.513	599.003
372.518	599.095
372.523	597.388
372.527	600.98
372.532	604.472
372.537	609.965
372.542	620.957
372.546	643.049
372.551	660.242
372.556	657.934
372.561	642.427
372.565	622.919
372.57	607.711
372.575	606.504
372.579	616.096
372.584	625.789
372.589	630.781
372.594	625.173
372.598	613.866
372.603	603.158
372.608	598.55
372.613	596.843
372.617	596.935
372.622	599.527
372.627	597.92
372.631	598.612
372.636	598.005
372.641	600.497
372.646	599.989
372.65	602.282
372.655	609.074
372.66	614.366
372.664	616.559
372.669	615.651
372.674	610.443
372.679	614.036
372.683	638.328
372.688	702.121
372.693	770.713
372.698	801.005
372.702	783.398
372.707	734.39
372.712	670.682
372.716	636.775
372.721	626.267
372.726	637.66
372.731	664.852
372.735	681.644
372.74	672.437
372.745	657.229
372.749	627.222
372.754	612.714
372.759	606.406
372.764	605.499
372.768	604.091
372.773	603.783
372.778	603.676
372.783	606.768
372.787	613.06
372.792	610.853
372.797	611.745
372.801	608.037
372.806	606.73
372.811	608.922
372.816	628.315
372.82	693.607
372.825	910.399
372.83	1699.49
372.834	2888.18
372.839	3251.58
372.844	2988.67
372.849	2343.36
372.853	1230.25
372.858	711.746
372.863	623.038
372.868	609.131
372.872	606.123
372.877	604.115
372.882	606.008
372.886	606.4
372.891	608.292
372.896	615.485
372.901	633.877
372.905	647.77
372.91	651.362
372.915	643.054
372.919	632.847
372.924	628.439
372.929	645.731
372.934	663.824
372.938	728.416
372.943	880.008
372.948	1002.2
372.952	986.593
372.957	927.986
372.962	802.278
372.967	681.17
372.971	647.463
372.976	637.055
372.981	629.047
372.986	613.64
372.99	602.132
372.995	596.925
373	596.017
373.004	595.709
373.009	597.502
373.014	598.394
373.019	597.087
373.023	600.079
373.028	600.571
373.033	601.764
373.037	607.256
373.042	612.148
373.047	617.841
373.052	623.433
373.056	621.625
373.061	616.018
373.066	616.41
373.07	619.102
373.075	623.795
373.08	626.587
373.085	627.98
373.089	623.072
373.094	624.664
373.099	623.157
373.104	621.349
373.108	616.542
373.113	612.534
373.118	610.726
373.122	608.119
373.127	604.211
373.132	603.003
373.137	599.796
373.141	600.788
373.146	605.181
373.151	635.773
373.155	699.565
373.16	742.957
373.165	742.55
373.17	723.642
373.174	674.635
373.179	626.027
373.184	608.219
373.188	598.612
373.193	595.504
373.198	594.496
373.203	593.389
373.207	595.081
373.212	595.073
373.217	595.066
373.221	593.258
373.226	595.551
373.231	596.643
373.236	599.735
373.24	602.328
373.245	600.72
373.25	600.513
373.255	602.105
373.259	609.297
373.264	629.29
373.269	643.782
373.273	643.274
373.278	635.567
373.283	621.859
373.288	603.152
373.292	595.744
373.297	594.336
373.302	596.329
373.306	595.921
373.311	594.613
373.316	595.406
373.321	596.498
373.325	596.79
373.33	594.283
373.335	594.675
373.339	594.268
373.344	595.86
373.349	597.352
373.354	601.045
373.358	603.037
373.363	604.229
373.368	605.922
373.372	612.314
373.377	611.707
373.382	611.799
373.387	611.291
373.391	605.784
373.396	598.976
373.401	596.768
373.405	597.961
373.41	598.053
373.415	599.245
373.42	598.038
373.424	596.33
373.429	595.023
373.434	595.315
373.438	599.607
373.443	612.2
373.448	641.392
373.453	665.284
373.457	662.977
373.462	654.469
373.467	633.362
373.471	609.95
373.476	607.807
373.481	606.447
373.486	602.637
373.49	603.14
373.495	603.58
373.5	605.98
373.504	609.111
373.509	618.581
373.514	636.558
373.519	655.85
373.523	659.877
373.528	662.278
373.53	669.227
373.535	774.125
373.54	952.724
373.545	1093.52
373.549	986.521
373.554	750.819
373.559	647.217
373.564	622.015
373.568	616.514
373.573	616.612
373.578	616.01
373.583	614.809
373.587	616.207
373.592	616.405
373.597	617.404
373.602	620.702
373.606	625.1
373.611	622.698
373.616	618.997
373.621	617.795
373.625	621.193
373.63	623.492
373.635	623.49
373.64	621.988
373.645	619.787
373.649	622.885
373.654	628.683
373.659	641.281
373.664	639.18
373.668	633.778
373.673	629.877
373.678	623.675
373.683	621.273
373.687	625.171
373.692	639.27
373.697	690.768
373.702	892.066
373.706	1670.26
373.711	3122.96
373.716	3106.16
373.721	1532.76
373.725	794.958
373.73	681.156
373.735	686.854
373.74	670.353
373.744	640.051
373.749	624.649
373.754	619.848
373.759	618.146
373.763	618.444
373.768	618.443
373.773	616.741
373.778	618.639
373.783	617.537
373.787	620.736
373.792	625.034
373.797	637.332
373.802	673.531
373.806	796.329
373.811	1019.23
373.816	1050.83
373.821	811.524
373.825	661.522
373.83	626.221
373.835	622.619
373.84	623.717
373.844	623.315
373.849	620.614
373.854	622.012
373.859	633.41
373.863	690.509
373.868	848.307
373.873	956.505
373.878	822.504
373.882	673.502
373.887	628.3
373.892	618.798
373.897	614.597
373.901	613.295
373.906	613.994
373.911	612.892
373.916	612.69
373.92	615.688
373.925	620.487
373.93	644.385
373.935	703.283
373.939	717.882
373.944	652.28
373.949	623.178
373.954	615.876
373.958	615.375
373.963	612.473
373.968	611.271
373.973	612.57
373.978	615.668
373.982	616.166
373.987	616.165
373.992	614.763
373.997	620.861
374.001	637.059
374.006	647.158
374.011	636.556
374.016	620.554
374.02	616.753
374.025	616.451
374.03	621.549
374.035	620.348
374.039	617.246
374.044	616.044
374.049	622.943
374.054	644.741
374.058	661.939
374.063	646.838
374.068	625.436
374.073	619.134
374.077	629.032
374.082	674.331
374.087	851.129
374.092	1185.13
374.096	1391.13
374.101	1015.52
374.106	710.222
374.111	631.221
374.115	617.319
374.12	614.917
374.125	616.516
374.13	617.714
374.134	619.712
374.139	616.21
374.144	616.109
374.149	615.707
374.153	615.705
374.158	623.004
374.163	638.602
374.168	672.8
374.172	763.899
374.177	1007.2
374.182	1327.8
374.187	1366.69
374.191	1111.59
374.196	844.19
374.201	675.888
374.206	626.287
374.211	621.085
374.215	626.283
374.22	625.581
374.225	619.88
374.23	614.078
374.234	613.076
374.239	612.375
374.244	612.973
374.249	612.372
374.253	612.27
374.258	613.668
374.263	615.466
374.268	615.465
374.272	614.263
374.277	616.161
374.282	624.26
374.287	632.458
374.291	640.456
374.296	680.655
374.301	765.853
374.306	783.251
374.31	699.249
374.315	641.248
374.32	645.946
374.325	703.544
374.329	736.643
374.334	685.841
374.339	632.939
374.344	618.038
374.348	620.736
374.353	627.534
374.358	637.632
374.363	640.931
374.367	625.629
374.372	616.027
374.377	613.626
374.382	614.224
374.386	619.622
374.391	627.021
374.396	627.219
374.401	624.417
374.405	625.916
374.41	647.114
374.415	658.512
374.42	638.711
374.424	618.809
374.429	614.507
374.434	613.505
374.439	612.204
374.443	610.002
374.448	611.3
374.453	612.599
374.458	612.497
374.462	614.095
374.467	622.794
374.472	649.892
374.477	678.29
374.481	663.889
374.486	632.187
374.491	619.485
374.496	618.583
374.5	620.982
374.505	638.88
374.51	666.678
374.515	670.677
374.519	649.775
374.524	668.173
374.529	699.072
374.534	678.97
374.538	646.868
374.543	651.766
374.548	650.365
374.553	639.363
374.557	651.061
374.562	692.56
374.567	757.558
374.572	728.356
374.576	646.255
374.581	616.853
374.586	612.451
374.591	611.25
374.595	611.648
374.6	613.046
374.605	615.144
374.61	625.243
374.614	639.841
374.619	631.939
374.624	625.438
374.629	636.136
374.633	632.134
374.638	618.632
374.643	617.031
374.648	623.529
374.652	641.828
374.657	664.826
374.662	725.224
374.667	823.522
374.671	797.621
374.676	723.819
374.681	720.717
374.686	698.916
374.69	651.914
374.695	629.312
374.7	643.11
374.705	681.309
374.709	684.507
374.714	644.005
374.719	619.404
374.724	613.402
374.728	612.1
374.733	614.399
374.738	618.397
374.743	628.995
374.747	658.794
374.752	674.692
374.757	654.49
374.762	637.788
374.766	652.987
374.771	672.185
374.776	650.483
374.781	622.682
374.785	614.38
374.79	612.378
374.795	612.077
374.8	612.175
374.804	613.773
374.809	615.572
374.814	617.67
374.819	627.368
374.823	629.266
374.828	621.465
374.833	615.063
374.838	614.461
374.842	615.66
374.847	617.658
374.852	620.456
374.857	630.255
374.861	682.953
374.866	811.851
374.871	948.35
374.876	1005.65
374.88	1008.55
374.885	1187.24
374.89	1280.44
374.895	997.441
374.899	761.239
374.904	667.338
374.909	631.436
374.914	621.234
374.918	617.633
374.923	619.231
374.928	629.129
374.933	669.128
374.937	719.326
374.942	701.524
374.947	664.922
374.952	639.521
374.956	622.919
374.961	624.317
374.966	652.216
374.971	689.814
374.975	692.612
374.98	700.711
374.985	708.209
374.99	677.707
374.994	644.705
374.999	632.104
375.004	621.102
375.009	617.6
375.013	618.799
375.018	617.797
375.023	634.795
375.028	661.594
375.032	655.792
375.037	628.49
375.042	615.589
375.047	617.887
375.051	628.185
375.056	670.683
375.061	798.082
375.066	897.38
375.07	816.078
375.075	698.177
375.08	644.675
375.085	639.573
375.089	652.371
375.094	645.07
375.099	626.068
375.103	616.167
375.108	616.465
375.113	618.263
375.118	615.461
375.122	615.46
375.127	619.158
375.132	624.556
375.137	621.355
375.141	616.153
375.146	613.651
375.151	614.75
375.156	616.548
375.16	621.346
375.165	625.044
375.17	618.743
375.175	615.041
375.179	614.939
375.184	614.238
375.189	613.436
375.194	612.934
375.198	613.933
375.203	613.731
375.208	615.029
375.213	615.528
375.217	614.326
375.222	616.724
375.227	618.122
375.232	623.221
375.236	634.419
375.241	639.017
375.246	636.016
375.251	631.614
375.255	633.612
375.26	671.911
375.265	823.109
375.27	1173.01
375.274	1374.21
375.279	1053.5
375.284	736.402
375.289	648.8
375.293	626.299
375.298	622.697
375.303	622.995
375.308	623.394
375.312	632.192
375.317	655.59
375.322	746.689
375.327	862.487
375.331	851.785
375.336	788.583
375.341	752.482
375.345	698.68
375.35	649.278
375.355	632.877
375.36	627.975
375.364	626.973
375.369	627.372
375.374	627.57
375.379	626.368
375.383	625.767
375.388	627.865
375.393	637.863
375.398	661.961
375.402	722.46
375.407	816.058
375.412	826.356
375.417	720.455
375.421	657.453
375.426	635.751
375.431	635.35
375.436	653.448
375.44	668.446
375.445	660.144
375.45	642.443
375.455	639.341
375.459	655.44
375.464	700.738
375.469	746.036
375.474	768.734
375.478	741.133
375.483	671.931
375.488	641.829
375.493	634.228
375.497	632.426
375.502	632.924
375.507	634.223
375.512	635.821
375.516	636.019
375.521	640.617
375.526	638.116
375.53	639.014
375.535	638.612
375.54	642.211
375.545	649.709
375.549	681.207
375.554	786.305
375.559	881.604
375.564	807.402
375.568	693.8
375.573	661.199
375.578	658.497
375.583	654.195
375.587	658.994
375.592	661.892
375.597	674.29
375.602	745.489
375.606	891.587
375.611	924.585
375.616	853.484
375.621	1117.28
375.625	2331.58
375.63	3566.98
375.635	2762.88
375.64	1275.98
375.644	774.573
375.649	711.172
375.654	748.77
375.659	751.068
375.663	701.367
375.668	679.865
375.673	672.963
375.677	673.462
375.682	682.36
375.687	700.858
375.692	748.557
375.696	967.755
375.701	2064.95
375.706	7260.75
375.711	19385.8
375.715	23563.5
375.72	12166.9
375.725	3291.44
375.73	1105.44
375.734	763.041
375.739	699.84
375.744	683.738
375.749	675.136
375.753	668.134
375.758	664.033
375.763	660.831
375.768	659.729
375.772	657.928
375.777	653.926
375.782	653.924
375.787	654.823
375.791	673.621
375.796	713.119
375.801	730.717
375.806	702.516
375.81	681.914
375.815	681.112
375.82	669.311
375.824	651.409
375.829	640.607
375.834	640.906
375.839	640.004
375.843	640.602
375.848	641.201
375.853	655.999
375.858	688.997
375.862	741.695
375.867	747.294
375.872	695.892
375.877	656.89
375.881	649.689
375.886	653.087
375.891	654.085
375.896	658.284
375.9	671.882
375.905	692.58
375.91	719.479
375.915	814.677
375.919	1319.38
375.924	3949.37
375.929	13009.4
375.933	22708
375.938	17406.3
375.943	6082.87
375.948	1706.77
375.952	883.263
375.957	737.462
375.962	692.16
375.967	668.658
375.971	668.957
375.976	715.755
375.981	858.953
375.986	961.251
375.99	843.15
375.995	694.848
376	648.146
376.005	638.245
376.009	636.943
376.014	632.741
376.019	630.64
376.023	630.938
376.028	629.436
376.033	628.135
376.038	626.333
376.042	625.231
376.047	623.829
376.052	622.928
376.057	627.226
376.061	633.224
376.066	640.723
376.071	644.721
376.076	688.519
376.08	785.918
376.085	798.416
376.09	698.014
376.095	636.613
376.099	620.711
376.104	619.409
376.109	619.007
376.114	620.006
376.118	623.804
376.123	628.902
376.128	631.901
376.132	638.499
376.137	655.997
376.142	652.796
376.147	639.394
376.151	638.492
376.156	657.79
376.161	675.889
376.166	667.387
376.17	637.185
376.175	621.184
376.18	617.882
376.185	619.68
376.189	618.279
376.194	617.577
376.199	619.075
376.204	621.374
376.208	625.472
376.213	637.17
376.218	639.769
376.223	629.467
376.227	624.065
376.232	624.863
376.237	625.962
376.241	632.86
376.246	647.558
376.251	649.957
376.256	654.055
376.26	688.453
376.265	766.251
376.27	876.15
376.275	864.348
376.279	778.446
376.284	768.745
376.289	728.043
376.294	660.641
376.298	634.24
376.303	638.138
376.308	657.936
376.312	687.535
376.317	704.633
376.322	681.231
376.327	648.23
376.331	631.828
376.336	631.326
376.341	654.124
376.346	747.923
376.35	889.521
376.355	867.819
376.36	723.418
376.365	655.016
376.369	641.214
376.374	638.112
376.379	635.211
376.384	635.909
376.388	635.207
376.393	635.706
376.398	637.704
376.402	637.502
376.407	643.301
376.412	662.399
376.417	680.697
376.421	669.695
376.426	655.394
376.431	668.892
376.436	772.691
376.44	1362.99
376.445	2848.49
376.45	3323.39
376.455	1888.68
376.459	887.782
376.464	678.18
376.469	648.579
376.473	644.677
376.478	640.675
376.483	641.274
376.488	643.372
376.492	641.27
376.497	641.668
376.502	641.167
376.507	643.565
376.511	651.763
376.516	672.562
376.521	786.46
376.526	1477.56
376.53	3178.96
376.535	3481.45
376.54	1761.85
376.544	809.652
376.549	666.45
376.554	649.248
376.559	645.047
376.563	643.845
376.568	642.643
376.573	646.341
376.578	652.24
376.582	665.938
376.587	665.036
376.592	659.135
376.597	647.133
376.601	643.531
376.606	641.63
376.611	641.128
376.616	643.726
376.62	644.224
376.625	647.823
376.63	650.121
376.634	650.119
376.639	649.718
376.644	664.516
376.649	706.014
376.653	762.513
376.658	834.211
376.663	865.409
376.668	788.908
376.672	688.006
376.677	659.804
376.682	670.002
376.686	682.501
376.691	695.399
376.696	795.197
376.701	1103.3
376.705	1309.89
376.71	1058.69
376.715	773.591
376.72	699.089
376.724	692.387
376.729	709.185
376.734	731.184
376.739	747.382
376.743	824.18
376.748	1163.58
376.753	3165.48
376.757	12149.5
376.762	30283
376.767	35028.8
376.772	18527.2
376.776	4955.37
376.781	1394.97
376.786	824.765
376.791	736.363
376.795	708.762
376.8	696.76
376.805	693.358
376.81	715.557
376.814	788.355
376.819	829.253
376.824	765.152
376.828	735.15
376.833	896.848
376.838	1356.15
376.843	1573.84
376.847	1160.74
376.852	781.541
376.857	676.74
376.862	668.238
376.866	659.436
376.871	641.735
376.876	635.733
376.88	632.431
376.885	630.629
376.89	644.028
376.895	699.226
376.899	963.225
376.904	1519.12
376.909	1655.02
376.914	1157.02
376.918	749.818
376.923	646.916
376.928	634.214
376.933	638.713
376.937	641.211
376.942	644.309
376.947	672.008
376.951	781.006
376.956	953.204
376.961	930.102
376.966	924.901
376.97	1237.5
376.975	1283.8
376.98	977.096
376.985	766.394
376.989	666.492
376.994	632.991
376.999	640.289
377.004	657.387
377.008	650.786
377.013	632.784
377.018	621.682
377.022	620.781
377.027	620.879
377.032	622.277
377.037	619.975
377.041	619.474
377.046	623.972
377.051	634.07
377.056	640.369
377.06	650.367
377.065	679.765
377.07	705.563
377.074	677.762
377.079	633.96
377.084	621.158
377.089	618.057
377.093	617.055
377.098	619.453
377.103	620.252
377.108	622.75
377.112	629.248
377.117	667.947
377.122	761.545
377.126	790.243
377.131	704.042
377.136	636.94
377.141	622.138
377.145	624.136
377.15	643.735
377.155	748.633
377.16	990.231
377.164	1158.33
377.169	1105.53
377.174	912.626
377.178	717.725
377.183	638.323
377.188	623.121
377.193	619.619
377.197	620.216
377.202	619.613
377.207	621.61
377.212	620.307
377.216	620.303
377.221	620.5
377.226	620.697
377.23	620.094
377.235	621.49
377.24	622.187
377.245	624.684
377.249	623.381
377.254	628.678
377.259	648.274
377.264	716.371
377.268	819.668
377.273	848.265
377.278	1059.06
377.283	2493.96
377.287	5686.06
377.292	6737.85
377.297	3829.35
377.301	1389.05
377.306	771.642
377.311	677.439
377.316	648.236
377.32	638.833
377.325	640.629
377.33	652.926
377.335	659.523
377.339	653.52
377.344	649.317
377.349	642.813
377.353	634.61
377.358	648.607
377.363	691.904
377.368	712.9
377.372	681.397
377.377	642.994
377.382	625.191
377.387	621.188
377.391	625.384
377.396	645.181
377.401	661.678
377.405	642.275
377.41	622.871
377.415	617.568
377.42	615.865
377.424	615.462
377.429	615.158
377.434	615.955
377.438	614.852
377.443	616.149
377.448	622.146
377.453	644.642
377.457	736.339
377.462	886.636
377.467	908.633
377.472	812.03
377.476	745.926
377.481	680.823
377.486	636.02
377.49	619.517
377.495	616.013
377.5	616.51
377.505	619.707
377.509	625.904
377.514	631.301
377.519	641.897
377.524	642.794
377.528	631.291
377.533	621.288
377.538	618.484
377.542	621.081
377.547	621.678
377.552	620.575
377.557	620.471
377.561	619.968
377.566	621.865
377.571	634.162
377.576	683.059
377.58	763.855
377.585	777.852
377.59	697.749
377.594	653.646
377.599	671.443
377.604	679.639
377.609	652.836
377.613	628.533
377.618	623.029
377.623	622.427
377.628	624.223
377.632	629.62
377.637	635.917
377.642	638.013
377.646	644.31
377.651	678.007
377.656	694.304
377.661	672.001
377.665	649.997
377.67	645.694
377.675	641.891
377.679	629.688
377.684	626.284
377.689	625.381
377.694	630.078
377.698	627.575
377.703	625.772
377.708	624.968
377.713	627.265
377.717	631.262
377.722	650.359
377.727	737.756
377.731	896.252
377.736	925.349
377.741	798.246
377.746	688.343
377.75	647.139
377.755	638.236
377.76	668.233
377.764	877.23
377.769	1588.53
377.774	2439.42
377.779	2274.12
377.783	1798.62
377.788	1687.71
377.793	1285.81
377.798	830.707
377.802	663.904
377.807	634.901
377.812	632.498
377.816	633.594
377.821	633.691
377.826	632.388
377.831	635.185
377.835	638.281
377.84	639.578
377.845	637.575
377.85	636.072
377.854	630.669
377.859	627.765
377.864	627.262
377.868	627.459
377.873	629.156
377.878	632.953
377.883	642.449
377.887	646.146
377.892	640.343
377.897	632.24
377.901	637.336
377.906	677.433
377.911	790.33
377.916	900.527
377.92	831.224
377.925	705.52
377.93	654.017
377.935	649.814
377.939	649.911
377.944	645.208
377.949	643.504
377.953	648.501
377.958	651.198
377.963	653.794
377.968	658.191
377.972	682.788
377.977	770.285
377.982	1326.78
377.986	4231.08
377.991	12062.6
377.996	18635.1
378.001	14108.1
378.005	5782.86
378.01	1851.96
378.015	877.159
378.02	751.456
378.024	787.953
378.029	794.45
378.034	737.846
378.038	672.943
378.043	659.34
378.048	698.637
378.053	778.233
378.057	806.13
378.062	748.727
378.067	693.824
378.071	670.621
378.076	646.617
378.081	634.314
378.086	634.711
378.09	668.807
378.095	820.404
378.1	1104.1
378.104	1163.9
378.109	897.295
378.114	681.991
378.119	629.688
378.123	620.285
378.128	620.882
378.133	632.079
378.138	642.575
378.142	640.672
378.147	639.869
378.152	657.066
378.156	660.563
378.161	636.259
378.166	627.056
378.171	650.953
378.175	730.05
378.18	840.646
378.185	915.743
378.189	860.74
378.194	723.637
378.199	640.434
378.204	630.73
378.208	653.527
378.213	689.224
378.218	681.421
378.222	641.117
378.227	620.014
378.232	615.911
378.237	617.508
378.241	631.005
378.246	653.001
378.251	662.698
378.255	649.195
378.26	635.192
378.265	628.188
378.27	622.885
378.274	619.282
378.279	646.579
378.284	774.476
378.289	1027.77
378.293	1118.17
378.298	893.166
378.303	685.063
378.307	625.06
378.312	615.156
378.317	612.453
378.322	611.05
378.326	613.747
378.331	616.943
378.336	621.24
378.34	620.237
378.345	616.634
378.35	612.13
378.355	609.527
378.359	610.824
378.364	611.721
378.369	610.218
378.373	611.714
378.378	612.811
378.383	612.608
378.388	614.405
378.392	614.602
378.397	615.598
378.402	614.495
378.406	615.292
378.411	617.289
378.416	630.285
378.421	665.282
378.425	714.379
378.43	704.576
378.435	652.873
378.44	620.069
378.444	612.766
378.449	611.663
378.454	612.559
378.458	612.756
378.463	615.253
378.468	621.55
378.473	630.547
378.477	625.943
378.482	619.44
378.487	614.937
378.491	613.734
378.496	612.131
378.501	611.927
378.506	613.224
378.51	620.021
378.515	629.318
378.52	629.715
378.524	622.311
378.529	617.308
378.534	615.705
378.539	625.902
378.543	712.298
378.548	1077.1
378.553	1816.59
378.557	2106.39
378.562	1480.49
378.567	872.082
378.572	704.879
378.576	655.976
378.581	629.873
378.586	626.37
378.59	637.466
378.595	668.463
378.6	691.26
378.605	665.757
378.609	630.053
378.614	615.65
378.619	611.647
378.623	611.644
378.628	611.341
378.633	612.437
378.638	611.734
378.642	614.831
378.647	624.928
378.652	628.725
378.656	624.721
378.661	618.218
378.666	615.215
378.671	616.912
378.675	625.208
378.68	635.205
378.685	639.402
378.689	630.099
378.694	625.495
378.699	627.992
378.704	627.889
378.708	625.186
378.713	618.883
378.718	612.279
378.722	609.176
378.727	609.173
378.732	610.67
378.737	610.867
378.741	610.263
378.746	610.16
378.751	608.357
378.755	608.454
378.76	609.85
378.765	611.247
378.77	611.344
378.774	609.541
378.779	610.137
378.784	609.834
378.788	612.431
378.793	611.728
378.798	609.825
378.803	610.621
378.807	612.518
378.812	615.915
378.817	618.812
378.821	613.909
378.826	610.305
378.831	609.702
378.836	610.099
378.84	609.396
378.845	609.892
378.85	611.089
378.854	615.686
378.859	626.183
378.864	629.479
378.869	623.177
378.873	613.773
378.878	612.57
378.883	618.167
378.887	622.963
378.892	622.46
378.897	620.357
378.902	624.754
378.906	627.351
378.911	621.847
378.916	618.144
378.92	617.541
378.925	619.338
378.93	623.834
378.935	643.831
378.939	647.128
378.944	632.425
378.949	622.222
378.953	631.718
378.958	649.715
378.963	651.112
378.968	634.409
378.972	627.505
378.977	634.902
378.982	642.299
378.986	634.796
378.991	627.293
378.996	638.089
379.001	686.986
379.005	726.783
379.01	703.38
379.015	649.376
379.019	623.273
379.024	620.27
379.029	622.467
379.034	620.163
379.038	615.66
379.043	614.557
379.048	616.854
379.052	620.351
379.057	622.147
379.062	618.644
379.067	616.641
379.071	618.638
379.076	622.135
379.081	625.031
379.085	657.528
379.09	738.625
379.095	816.522
379.1	792.618
379.104	701.215
379.109	642.012
379.114	620.009
379.118	616.205
379.123	618.202
379.128	626.099
379.133	624.496
379.137	622.793
379.142	616.89
379.147	616.986
379.151	615.483
379.156	614.88
379.161	617.777
379.165	632.673
379.17	666.07
379.175	700.867
379.18	770.664
379.184	1133.56
379.189	2038.26
379.194	2795.95
379.198	2287.75
379.203	1279.95
379.208	753.044
379.213	638.741
379.217	622.138
379.222	620.435
379.227	621.432
379.231	625.628
379.236	647.625
379.241	726.222
379.246	852.219
379.25	888.015
379.255	788.112
379.26	676.609
379.264	630.106
379.269	620.403
379.274	621.999
379.279	631.896
379.283	636.693
379.288	631.99
379.293	620.186
379.297	615.083
379.302	614.88
379.307	615.377
379.312	617.374
379.316	625.87
379.321	662.667
379.326	715.264
379.33	738.061
379.335	728.258
379.34	918.754
379.344	1723.35
379.349	2921.25
379.354	3065.44
379.359	1981.94
379.363	1006.64
379.368	682.935
379.373	630.332
379.377	621.028
379.382	618.625
379.387	620.322
379.392	616.919
379.396	613.916
379.401	614.912
379.406	619.309
379.41	629.206
379.415	646.803
379.42	684.799
379.425	726.196
379.429	732.193
379.434	689.19
379.439	655.887
379.443	689.783
379.448	749.08
379.453	748.477
379.457	688.174
379.462	633.07
379.467	615.667
379.472	612.964
379.476	612.061
379.481	613.458
379.486	614.354
379.49	626.151
379.495	644.048
379.5	656.545
379.505	643.441
379.509	623.538
379.514	615.435
379.519	618.832
379.523	626.129
379.528	640.725
379.533	666.522
379.538	735.119
379.542	826.016
379.547	854.313
379.552	786.709
379.556	691.606
379.561	642.503
379.566	658.9
379.57	751.996
379.575	851.993
379.58	815.49
379.585	698.187
379.589	628.984
379.594	622.08
379.599	635.977
379.603	669.174
379.608	707.971
379.613	719.567
379.618	696.664
379.622	668.861
379.627	651.758
379.632	636.355
379.636	631.151
379.641	625.848
379.646	621.245
379.651	615.342
379.655	612.238
379.66	613.535
379.665	613.432
379.669	615.329
379.674	613.626
379.679	611.322
379.683	609.419
379.688	611.116
379.693	611.913
379.698	615.309
379.702	614.606
379.707	614.803
379.712	615.2
379.716	616.597
379.721	625.293
379.726	648.59
379.73	671.687
379.735	684.384
379.74	772.08
379.745	1046.98
379.749	1345.17
379.754	1293.67
379.759	961.168
379.763	700.564
379.768	629.661
379.773	617.158
379.778	613.855
379.782	613.651
379.787	612.448
379.792	617.145
379.796	647.542
379.801	739.939
379.806	863.035
379.81	888.432
379.815	775.829
379.82	664.926
379.825	621.023
379.829	614.719
379.834	613.016
379.839	614.413
379.843	634.01
379.848	697.806
379.853	775.903
379.858	770.2
379.862	691.897
379.867	630.793
379.872	613.69
379.876	609.687
379.881	610.884
379.886	610.281
379.89	610.177
379.895	610.774
379.9	610.171
379.905	611.868
379.909	615.065
379.914	616.261
379.919	618.458
379.923	618.255
379.928	619.452
379.933	620.748
379.938	628.945
379.942	633.242
379.947	627.539
379.952	622.035
379.956	617.432
379.961	614.229
379.966	611.126
379.97	610.323
379.975	610.12
379.98	611.216
379.985	611.613
379.989	611.11
379.994	614.507
379.999	612.503
380.003	612.4
380.008	611.597
380.013	612.294
380.017	618.69
380.022	646.887
380.027	712.884
380.032	766.181
380.036	748.778
380.041	682.374
380.046	642.671
380.05	663.568
380.055	728.665
380.06	848.862
380.065	1007.76
380.069	1050.96
380.074	924.952
380.079	747.549
380.083	650.845
380.088	631.942
380.093	654.339
380.097	785.736
380.102	1097.63
380.107	1354.93
380.112	1242.83
380.116	926.723
380.121	689.42
380.126	626.017
380.13	614.813
380.135	614.11
380.14	614.707
380.144	614.804
380.149	618.4
380.154	619.197
380.159	616.994
380.163	613.691
380.168	612.188
380.173	613.184
380.177	613.781
380.182	620.278
380.187	631.275
380.191	646.671
380.196	657.168
380.201	697.965
380.206	753.762
380.21	773.859
380.215	728.355
380.22	732.052
380.224	1026.55
380.229	1601.35
380.234	1844.04
380.238	1488.74
380.243	933.636
380.248	687.933
380.253	694.429
380.257	729.426
380.262	738.323
380.267	704.12
380.271	667.617
380.276	661.513
380.281	656.11
380.285	647.307
380.29	631.904
380.295	622.5
380.3	619.297
380.304	630.494
380.309	690.391
380.314	898.488
380.318	1287.58
380.323	1549.08
380.328	1372.78
380.333	997.975
380.337	757.971
380.342	707.368
380.347	674.865
380.351	644.562
380.356	634.959
380.361	647.755
380.365	653.652
380.37	651.949
380.375	641.246
380.38	627.943
380.384	619.639
380.389	616.436
380.394	618.633
380.398	643.33
380.403	703.527
380.408	769.723
380.412	772.52
380.417	714.117
380.422	648.214
380.427	622.41
380.431	615.107
380.436	615.104
380.441	615.801
380.445	619.198
380.45	647.794
380.455	715.991
380.459	777.088
380.464	768.685
380.469	708.781
380.474	653.878
380.478	633.875
380.483	628.072
380.488	624.569
380.492	622.665
380.497	626.762
380.502	632.959
380.506	631.456
380.511	624.552
380.516	616.649
380.52	616.246
380.525	616.843
380.53	617.039
380.535	621.236
380.539	628.433
380.544	642.63
380.549	648.327
380.553	641.223
380.558	627.42
380.563	622.217
380.567	620.314
380.572	621.911
380.577	619.607
380.582	617.804
380.586	618.301
380.591	619.198
380.596	620.494
380.6	625.091
380.605	627.388
380.61	625.785
380.614	623.581
380.619	623.178
380.624	620.175
380.629	620.572
380.633	622.269
380.638	620.265
380.643	622.562
380.647	624.259
380.652	631.656
380.657	638.552
380.661	646.949
380.666	661.146
380.671	697.243
380.676	745.14
380.68	750.237
380.685	717.233
380.69	695.63
380.694	711.027
380.699	730.523
380.704	717.92
380.708	678.417
380.713	643.514
380.718	630.911
380.723	633.907
380.727	641.104
380.732	644.901
380.737	640.998
380.741	636.295
380.746	629.091
380.751	628.788
380.755	634.785
380.76	669.982
380.765	778.579
380.769	905.975
380.774	915.772
380.779	817.369
380.784	698.666
380.788	649.362
380.793	645.859
380.798	643.756
380.802	643.653
380.807	648.85
380.812	657.946
380.816	709.243
380.821	1041.54
380.826	2675.34
380.831	6722.23
380.835	10697
380.84	10797.2
380.845	7346.82
380.849	3263.72
380.854	1721.82
380.859	1640.51
380.863	1506.91
380.868	1144.81
380.873	782.604
380.877	673.101
380.882	663.998
380.887	694.895
380.892	802.692
380.896	978.188
380.901	1071.29
380.906	992.782
380.91	824.479
380.915	692.375
380.92	650.672
380.924	641.769
380.929	643.466
380.934	672.862
380.939	872.759
380.943	1667.56
380.948	3092.95
380.953	3988.65
380.957	3524.45
380.962	2243.64
380.967	1099.94
380.971	729.637
380.976	731.334
380.981	974.23
380.985	1647.13
380.99	2501.62
380.995	2765.92
381	2256.52
381.004	1396.91
381.009	822.011
381.014	669.108
381.018	637.604
381.023	627.401
381.028	638.598
381.032	648.995
381.037	648.992
381.042	641.188
381.046	632.585
381.051	629.282
381.056	627.479
381.061	623.376
381.065	619.372
381.07	619.069
381.075	618.466
381.079	616.263
381.084	616.06
381.089	614.656
381.093	613.653
381.098	613.75
381.103	612.747
381.107	612.643
381.112	612.14
381.117	612.537
381.122	610.434
381.126	611.531
381.131	613.027
381.136	612.424
381.14	613.921
381.145	614.518
381.15	614.914
381.154	617.811
381.159	617.508
381.164	632.905
381.168	683.602
381.173	793.598
381.178	867.395
381.183	857.392
381.187	786.689
381.192	706.985
381.197	680.982
381.201	684.879
381.206	672.776
381.211	655.573
381.215	635.569
381.22	623.866
381.225	624.463
381.229	625.56
381.234	626.056
381.239	628.853
381.244	629.35
381.248	634.247
381.253	646.544
381.258	657.04
381.262	655.437
381.267	646.234
381.272	635.231
381.276	627.127
381.281	624.224
381.286	625.921
381.29	627.618
381.295	626.514
381.3	625.011
381.305	626.808
381.309	628.105
381.314	633.202
381.319	635.498
381.323	642.095
381.328	641.292
381.333	642.289
381.337	638.386
381.342	642.682
381.347	668.179
381.351	704.376
381.356	717.873
381.361	703.17
381.366	674.266
381.37	650.163
381.375	644.26
381.38	644.457
381.384	645.654
381.389	653.05
381.394	672.347
381.398	689.844
381.403	699.241
381.408	704.437
381.412	710.534
381.417	702.131
381.422	691.128
381.427	672.524
381.431	655.721
381.436	646.918
381.441	645.615
381.445	648.011
381.45	646.508
381.455	646.805
381.459	644.202
381.464	646.399
381.469	649.696
381.473	670.092
381.478	761.389
381.483	981.986
381.488	1196.58
381.492	1219.38
381.497	1079.58
381.502	845.373
381.506	700.67
381.511	665.866
381.516	668.163
381.52	677.86
381.525	678.057
381.53	677.453
381.534	689.25
381.539	806.047
381.544	1140.84
381.548	1517.84
381.553	1582.64
381.558	1388.63
381.563	1003.83
381.567	748.328
381.572	681.425
381.577	667.621
381.581	665.018
381.586	668.015
381.591	671.812
381.595	675.709
381.6	678.105
381.605	681.302
381.609	685.599
381.614	691.396
381.619	701.792
381.624	721.489
381.628	770.986
381.633	882.383
381.638	1096.98
381.642	1789.68
381.647	5359.87
381.652	16782.7
381.656	32143.5
381.661	37927.8
381.666	33356.9
381.67	19832.4
381.675	6691.85
381.68	1938.55
381.684	1035.35
381.689	862.644
381.694	798.041
381.698	758.038
381.703	735.834
381.708	738.631
381.713	735.228
381.717	720.825
381.722	694.521
381.727	678.518
381.731	674.215
381.736	677.412
381.741	673.409
381.745	667.905
381.75	659.302
381.755	660.199
381.759	669.896
381.764	695.293
381.769	707.489
381.773	698.286
381.778	673.183
381.783	643.78
381.788	631.276
381.792	628.773
381.797	630.17
381.802	651.367
381.806	705.164
381.811	773.46
381.816	789.857
381.82	768.354
381.825	702.751
381.83	644.647
381.834	622.944
381.839	620.241
381.844	617.138
381.848	615.035
381.853	615.031
381.858	615.028
381.863	616.625
381.867	616.022
381.872	614.318
381.877	614.415
381.881	613.712
381.886	615.409
381.891	616.906
381.895	616.902
381.9	617.899
381.905	626.096
381.909	671.293
381.914	809.689
381.919	975.886
381.923	1021.88
381.928	970.68
381.933	837.277
381.938	712.373
381.942	670.67
381.947	651.667
381.952	631.764
381.956	619.36
381.961	616.957
381.966	617.654
381.97	616.751
381.975	615.448
381.98	614.744
381.984	613.041
381.989	610.938
381.994	610.335
381.998	611.032
382.003	611.428
382.008	611.025
382.012	611.922
382.017	613.419
382.022	615.815
382.027	621.312
382.031	622.809
382.036	621.906
382.041	619.003
382.045	616.699
382.05	631.696
382.055	653.893
382.059	667.79
382.064	663.886
382.069	647.983
382.073	625.98
382.078	614.177
382.083	610.274
382.087	611.07
382.092	611.167
382.097	611.264
382.102	610.961
382.106	610.057
382.111	610.254
382.116	611.651
382.12	620.248
382.125	634.245
382.13	642.941
382.134	640.538
382.139	632.535
382.144	621.432
382.148	616.129
382.153	617.125
382.158	617.422
382.162	617.419
382.167	613.616
382.172	613.312
382.176	611.809
382.181	611.806
382.186	610.203
382.19	610.9
382.195	610.796
382.2	612.193
382.205	615.29
382.209	627.287
382.214	635.484
382.219	637.48
382.223	640.377
382.228	646.174
382.233	657.571
382.237	662.767
382.242	659.964
382.247	645.461
382.251	625.058
382.256	618.654
382.261	612.851
382.265	610.648
382.27	612.245
382.275	612.342
382.279	615.538
382.284	615.835
382.289	617.532
382.294	616.729
382.298	616.926
382.303	618.622
382.308	627.719
382.312	678.916
382.317	821.013
382.322	977.209
382.326	1005.11
382.331	977.303
382.336	989.2
382.34	1333
382.345	1875.59
382.35	2027.79
382.354	1869.49
382.359	1422.18
382.364	878.18
382.368	663.477
382.373	625.174
382.378	618.171
382.382	614.468
382.387	613.464
382.392	613.261
382.397	614.158
382.401	614.755
382.406	617.451
382.411	618.748
382.415	623.245
382.42	622.442
382.425	623.338
382.429	623.635
382.434	627.632
382.439	636.629
382.443	646.026
382.448	643.222
382.453	639.319
382.457	629.216
382.462	630.913
382.467	692.71
382.471	819.806
382.476	908.003
382.481	897.6
382.485	838.697
382.49	723.693
382.495	642.19
382.499	624.687
382.504	619.584
382.509	626.781
382.514	656.677
382.518	790.474
382.523	1044.37
382.528	1225.27
382.532	1222.36
382.537	1104.46
382.542	868.258
382.546	686.055
382.551	634.452
382.556	624.648
382.56	621.945
382.565	620.642
382.57	619.839
382.574	627.035
382.579	668.132
382.584	777.529
382.588	866.526
382.593	879.523
382.598	863.619
382.602	788.516
382.607	699.613
382.612	665.21
382.616	639.806
382.621	625.103
382.626	623.9
382.631	637.697
382.635	681.594
382.64	737.29
382.645	747.387
382.649	734.884
382.654	696.081
382.659	648.277
382.663	628.374
382.668	631.871
382.673	642.968
382.677	663.564
382.682	678.461
382.687	687.858
382.691	678.155
382.696	663.852
382.701	646.948
382.705	634.845
382.71	627.442
382.715	623.939
382.719	621.436
382.724	620.832
382.729	621.329
382.733	617.726
382.738	618.523
382.743	620.219
382.747	619.016
382.752	624.613
382.757	630.51
382.762	633.207
382.766	632.303
382.771	629.8
382.776	628.997
382.78	634.494
382.785	643.991
382.79	653.987
382.794	657.684
382.799	678.381
382.804	811.578
382.808	1601.07
382.813	3910.07
382.818	6665.07
382.822	7399.17
382.827	6803.06
382.832	5006.96
382.836	2365.35
382.841	1015.05
382.846	714.749
382.85	661.446
382.855	650.842
382.86	648.939
382.864	645.536
382.869	647.633
382.874	650.329
382.878	649.426
382.883	645.823
382.888	639.62
382.892	627.616
382.897	626.413
382.902	630.41
382.906	669.107
382.911	784.704
382.916	958.5
382.921	1041.9
382.925	1019.59
382.93	936.391
382.935	789.187
382.939	704.584
382.944	714.881
382.949	733.078
382.953	765.575
382.958	781.871
382.963	749.068
382.967	740.665
382.972	769.262
382.977	783.159
382.981	777.655
382.986	766.952
382.991	726.449
382.995	703.646
383	734.442
383.005	771.339
383.009	765.436
383.014	744.533
383.019	693.93
383.023	638.326
383.028	618.123
383.033	613.32
383.037	612.617
383.042	612.113
383.047	611.01
383.051	612.007
383.056	611.604
383.061	610.5
383.065	610.597
383.07	611.195
383.075	610.73
383.079	613.219
383.084	614.36
383.089	617.484
383.094	620.042
383.098	620.668
383.103	621.609
383.108	622.665
383.112	625.975
383.117	631.971
383.122	640.123
383.126	644.585
383.131	637.683
383.134	633.622
383.138	640.922
383.143	660.523
383.148	730.323
383.153	840.924
383.157	834.524
383.162	715.725
383.167	660.625
383.171	670.026
383.176	689.626
383.181	678.027
383.186	671.027
383.19	708.727
383.195	769.428
383.2	801.628
383.204	797.829
383.209	865.429
383.214	1067.93
383.219	1066.73
383.223	833.331
383.228	707.331
383.233	666.632
383.237	642.132
383.242	630.833
383.247	630.233
383.252	629.834
383.256	629.934
383.261	628.835
383.266	628.935
383.271	636.736
383.275	644.736
383.28	653.036
383.285	643.237
383.289	635.237
383.294	634.538
383.299	638.739
383.304	639.839
383.308	635.039
383.313	635.84
383.318	643.94
383.322	680.641
383.327	803.841
383.332	1013.54
383.337	1026.14
383.341	804.043
383.346	683.043
383.351	677.244
383.355	711.544
383.36	733.144
383.365	708.145
383.37	686.546
383.374	680.846
383.379	684.546
383.384	737.447
383.388	947.447
383.393	1722.95
383.398	2528.15
383.403	1959.35
383.407	1043.05
383.412	850.15
383.417	1094.15
383.421	2217.85
383.426	6656.75
383.431	17339.9
383.436	23584.3
383.44	14666.1
383.445	4677.95
383.45	1429.35
383.454	819.154
383.459	712.754
383.464	682.355
383.469	665.355
383.473	655.756
383.478	652.956
383.483	648.957
383.488	646.657
383.492	649.158
383.497	654.758
383.502	656.159
383.506	663.359
383.511	720.26
383.516	819.16
383.521	827.761
383.525	711.761
383.53	647.161
383.535	628.762
383.539	623.862
383.544	622.163
383.549	621.763
383.554	620.164
383.558	619.764
383.563	618.965
383.568	619.265
383.572	619.966
383.577	620.866
383.582	620.467
383.587	621.867
383.591	621.768
383.596	619.168
383.601	620.069
383.605	627.369
383.61	654.07
383.615	761.57
383.62	1040.37
383.624	1263.87
383.629	1081.77
383.634	784.172
383.638	666.072
383.643	647.973
383.648	676.973
383.653	710.974
383.657	682.874
383.662	639.775
383.667	621.075
383.671	618.276
383.676	616.576
383.681	617.377
383.686	606.377
383.69	617.278
383.695	618.478
383.7	618.479
383.704	619.679
383.709	619.179
383.714	620.78
383.719	624.98
383.723	626.281
383.728	623.781
383.733	620.982
383.737	621.482
383.742	623.383
383.747	628.883
383.752	643.884
383.756	655.484
383.761	678.685
383.766	821.585
383.77	1433.49
383.775	3170.09
383.78	4596.49
383.785	3351.19
383.789	1468.89
383.794	803.088
383.799	684.489
383.803	659.789
383.808	640.289
383.813	639.89
383.818	651.79
383.822	677.291
383.827	682.791
383.832	660.492
383.836	647.392
383.841	664.893
383.846	719.593
383.851	811.794
383.855	855.394
383.86	749.395
383.865	652.995
383.869	624.796
383.874	618.896
383.879	617.396
383.884	618.197
383.888	617.897
383.893	617.298
383.898	618.598
383.902	622.799
383.907	639.899
383.912	680.1
383.917	698.7
383.921	662.801
383.926	626.301
383.931	619.702
383.935	620.202
383.94	626.403
383.945	631.203
383.95	638.003
383.954	643.704
383.959	643.404
383.964	634.705
383.968	629.505
383.973	633.606
383.978	628.806
383.983	624.107
383.987	620.807
383.992	617.608
383.997	618.008
384.001	619.509
384.006	621.409
384.011	620.91
384.016	618.21
384.02	623.111
384.025	636.911
384.03	668.912
384.034	686.412
384.039	660.612
384.044	637.313
384.049	637.814
384.053	673.314
384.058	707.014
384.063	698.815
384.067	676.215
384.072	697.816
384.077	841.616
384.081	975.617
384.086	841.817
384.091	675.118
384.096	635.818
384.1	630.119
384.105	630.919
384.11	632.12
384.114	634.22
384.119	636.32
384.124	643.021
384.129	647.921
384.133	664.122
384.138	750.022
384.143	946.923
384.147	1340.72
384.152	2827.52
384.157	5769.22
384.162	6164.33
384.166	3163.03
384.171	1228.53
384.176	751.026
384.18	664.727
384.185	648.327
384.19	644.728
384.195	644.328
384.199	644.529
384.204	646.029
384.209	646.329
384.213	644.83
384.218	648.531
384.223	657.431
384.228	675.931
384.232	696.132
384.237	714.532
384.242	752.933
384.246	755.933
384.251	688.834
384.256	657.334
384.26	660.735
384.265	665.735
384.27	671.736
384.275	697.636
384.279	703.437
384.284	668.537
384.289	649.438
384.293	650.438
384.298	651.239
384.303	649.539
384.308	650.539
384.312	652.44
384.317	647.44
384.322	649.041
384.326	650.341
384.331	653.642
384.336	654.042
384.341	657.343
384.345	666.643
384.35	672.244
384.355	666.544
384.359	656.045
384.364	653.845
384.369	655.346
384.374	658.946
384.378	667.546
384.383	693.447
384.388	696.548
384.392	681.548
384.397	698.348
384.402	729.149
384.406	706.949
384.411	669.75
384.416	662.85
384.421	662.551
384.425	664.051
384.43	664.452
384.435	661.652
384.439	663.953
384.444	674.553
384.449	685.554
384.454	699.154
384.458	739.055
384.463	968.155
384.468	1411.66
384.472	1375.66
384.477	903.556
384.482	711.157
384.487	686.557
384.491	680.858
384.496	685.558
384.501	699.859
384.505	720.559
384.51	736.86
384.515	734.06
384.52	733.261
384.524	765.861
384.529	894.662
384.534	1390.16
384.538	3677.96
384.543	12939.1
384.548	29136.6
384.552	30389
384.557	13808
384.562	3629.47
384.567	1229.17
384.571	826.566
384.576	749.166
384.581	724.867
384.585	717.267
384.59	712.968
384.595	711.668
384.6	720.269
384.604	730.969
384.609	734.07
384.614	722.97
384.618	717.771
384.623	737.571
384.628	770.372
384.632	768.972
384.637	746.973
384.642	771.773
384.647	889.373
384.651	1056.97
384.656	1145.17
384.661	1609.38
384.665	4398.67
384.67	16573.9
384.675	39511.8
384.68	43577.5
384.684	22300
384.689	5673.28
384.694	1565.78
384.698	889.279
384.703	768.379
384.708	726.98
384.712	706.08
384.717	693.08
384.722	686.581
384.727	683.881
384.731	680.182
384.736	671.682
384.741	669.783
384.745	663.583
384.75	661.284
384.755	657.784
384.76	653.985
384.764	649.685
384.769	641.986
384.774	640.086
384.778	638.587
384.783	642.087
384.788	646.488
384.792	644.788
384.797	636.789
384.802	629.989
384.807	629.29
384.811	625.39
384.816	626.69
384.821	627.291
384.825	626.191
384.83	623.192
384.835	621.692
384.84	626.393
384.844	632.193
384.849	647.494
384.854	644.194
384.858	632.095
384.863	625.495
384.868	625.596
384.872	626.796
384.877	627.197
384.882	625.697
384.887	621.498
384.891	622.798
384.896	623.598
384.901	623.599
384.905	621.899
384.91	620.8
384.915	624.5
384.919	621.301
384.924	623.901
384.929	631.302
384.934	651.902
384.938	667.403
384.943	652.303
384.948	628.704
384.952	625.504
384.957	626.905
384.962	631.505
384.967	646.106
384.971	711.306
384.976	1015.41
384.981	2452.81
384.985	4493.51
384.99	3710.21
384.995	1468.61
384.999	746.709
385.004	644.909
385.009	629.61
385.014	628.51
385.018	637.111
385.023	657.411
385.028	674.412
385.032	659.212
385.037	647.013
385.042	635.313
385.047	626.314
385.051	625.814
385.056	629.514
385.061	630.915
385.065	626.315
385.07	631.516
385.075	674.116
385.079	815.217
385.084	958.717
385.089	859.918
385.094	687.618
385.098	629.919
385.103	620.319
385.108	624.22
385.112	639.92
385.117	689.421
385.122	797.521
385.126	864.822
385.131	793.622
385.136	676.423
385.141	629.623
385.145	621.623
385.15	622.124
385.155	620.824
385.159	617.425
385.164	617.525
385.169	616.626
385.173	616.326
385.178	616.727
385.183	616.727
385.188	618.028
385.192	618.828
385.197	631.629
385.202	684.229
385.206	819.03
385.211	921.93
385.216	888.731
385.22	899.131
385.225	856.732
385.23	711.532
385.235	635.632
385.239	627.133
385.244	656.633
385.249	690.234
385.253	677.234
385.258	635.935
385.263	617.635
385.268	615.536
385.272	616.136
385.277	617.537
385.282	615.337
385.286	616.138
385.291	625.938
385.296	667.339
385.3	791.539
385.305	883.639
385.31	790.24
385.315	664.14
385.319	628.641
385.324	639.242
385.329	677.242
385.333	694.742
385.338	656.443
385.343	622.943
385.347	615.744
385.352	616.244
385.357	614.245
385.362	613.645
385.366	612.846
385.371	613.346
385.376	613.147
385.38	613.147
385.385	613.748
385.39	613.048
385.394	614.849
385.399	614.549
385.404	614.349
385.409	616.75
385.413	622.85
385.418	631.551
385.423	634.751
385.427	626.752
385.432	618.952
385.437	629.353
385.441	652.553
385.446	658.654
385.451	641.054
385.456	632.755
385.46	640.255
385.465	674.656
385.47	797.156
385.474	1323.16
385.479	2465.06
385.484	2753.16
385.488	1663.46
385.493	868.458
385.498	677.059
385.503	637.159
385.507	652.96
385.512	707.26
385.517	714.461
385.521	673.961
385.526	669.362
385.531	675.062
385.535	686.063
385.54	728.063
385.545	706.264
385.549	644.664
385.554	620.365
385.559	618.765
385.564	629.065
385.568	642.866
385.573	640.167
385.578	625.367
385.582	620.267
385.587	623.568
385.592	625.068
385.596	628.569
385.601	638.969
385.606	655.27
385.611	665.97
385.615	642.871
385.62	619.671
385.625	615.272
385.629	613.272
385.634	614.573
385.639	615.673
385.643	629.174
385.648	688.174
385.653	834.574
385.658	918.375
385.662	789.675
385.667	667.576
385.672	635.676
385.676	631.277
385.681	630.477
385.686	631.878
385.69	647.278
385.695	659.179
385.7	644.079
385.705	622.98
385.709	616.48
385.714	614.981
385.719	615.881
385.723	615.482
385.728	614.182
385.733	616.482
385.737	621.383
385.742	628.883
385.747	630.684
385.752	649.684
385.756	674.485
385.761	666.885
385.766	653.786
385.77	651.986
385.775	635.987
385.78	621.387
385.784	617.088
385.789	618.988
385.794	623.089
385.798	637.189
385.803	709.29
385.808	866.99
385.813	912.891
385.817	759.591
385.822	650.492
385.827	623.792
385.831	622.092
385.836	626.893
385.841	656.293
385.845	807.694
385.85	1419.39
385.855	2292.4
385.86	2128.6
385.864	1177
385.869	736.296
385.874	664.997
385.878	670.497
385.883	659.898
385.888	639.198
385.892	625.298
385.897	622.299
385.902	625.799
385.906	663.4
385.911	830.6
385.916	1232.8
385.921	1401.1
385.925	1078.6
385.93	768.902
385.935	650.303
385.939	625.103
385.944	618.504
385.949	618.104
385.953	619.705
385.958	627.905
385.963	657.206
385.968	683.106
385.972	664.107
385.977	635.007
385.982	622.208
385.986	620.008
385.991	618.809
385.996	622.009
386	623.909
386.005	621.51
386.01	620.31
386.014	622.611
386.019	647.811
386.024	754.812
386.029	988.212
386.033	1104.91
386.038	941.813
386.043	832.714
386.047	981.314
386.052	1044.31
386.057	854.915
386.061	696.915
386.066	643.216
386.071	626.916
386.076	624.217
386.08	623.417
386.085	621.018
386.09	618.918
386.094	620.519
386.099	618.019
386.104	619.22
386.108	619.32
386.113	620.721
386.118	619.221
386.122	619.122
386.127	621.722
386.132	626.923
386.137	627.923
386.141	625.323
386.146	621.724
386.151	620.624
386.155	620.125
386.16	622.525
386.165	621.626
386.169	624.326
386.174	624.827
386.179	629.727
386.183	629.328
386.188	626.328
386.193	623.829
386.198	623.029
386.202	621.23
386.207	621.03
386.212	620.231
386.216	621.131
386.221	620.632
386.226	625.132
386.23	623.133
386.235	623.333
386.24	625.034
386.244	631.134
386.249	635.334
386.254	640.135
386.259	670.235
386.263	822.536
386.268	1317.44
386.273	1902.54
386.277	1694.24
386.282	1036.14
386.287	716.638
386.291	650.439
386.296	641.839
386.301	643.44
386.305	644.44
386.31	646.541
386.315	649.241
386.32	649.741
386.324	651.542
386.329	654.142
386.334	667.443
386.338	692.743
386.343	782.644
386.348	1297.94
386.352	3587.34
386.357	8054.25
386.362	9053.05
386.366	4758.55
386.371	1603.05
386.376	840.647
386.381	746.048
386.385	739.248
386.39	710.049
386.395	678.649
386.399	671.249
386.404	672.65
386.409	681.951
386.413	681.151
386.418	669.851
386.423	663.752
386.427	661.952
386.432	659.853
386.437	662.953
386.442	669.354
386.446	700.354
386.451	843.855
386.456	1086.16
386.46	1109.96
386.465	859.456
386.47	704.757
386.474	667.957
386.479	666.358
386.484	664.758
386.488	661.259
386.493	663.759
386.498	678.06
386.503	714.76
386.507	736.76
386.512	717.961
386.517	734.361
386.521	851.462
386.526	1156.96
386.531	1426.26
386.535	1256.86
386.54	943.764
386.545	831.964
386.549	889.065
386.554	892.365
386.559	775.466
386.563	697.366
386.568	685.766
386.573	693.167
386.578	706.967
386.582	703.168
386.587	682.668
386.592	674.569
386.596	673.769
386.601	677.07
386.606	682.07
386.61	689.971
386.615	691.271
386.62	687.472
386.624	686.772
386.629	692.173
386.634	705.573
386.638	708.274
386.643	698.674
386.648	697.275
386.653	701.775
386.657	720.575
386.662	771.176
386.667	825.776
386.671	805.977
386.676	762.177
386.681	747.478
386.685	760.978
386.69	785.279
386.695	823.779
386.699	923.58
386.704	1269.58
386.709	3126.58
386.714	13054.8
386.718	43106.5
386.723	65342.4
386.728	55764.1
386.732	22519.2
386.737	4899.98
386.742	1494.48
386.746	950.685
386.751	842.985
386.756	806.185
386.76	813.786
386.765	953.086
386.77	1378.89
386.774	2411.09
386.779	3325.89
386.784	2669.49
386.789	1410.49
386.793	849.189
386.798	721.79
386.803	692.09
386.807	682.491
386.812	678.691
386.817	679.591
386.821	684.292
386.826	692.393
386.831	679.193
386.835	664.493
386.84	657.094
386.845	655.494
386.849	681.995
386.854	743.795
386.859	761.796
386.864	693.496
386.868	647.897
386.873	637.897
386.878	635.498
386.882	634.098
386.887	635.499
386.892	632.499
386.896	630.2
386.901	630.2
386.906	631.3
386.91	631.301
386.915	628.301
386.92	629.502
386.924	629.702
386.929	626.703
386.934	628.003
386.939	630.704
386.943	638.704
386.948	641.505
386.953	636.605
386.957	633.406
386.962	629.706
386.967	630.607
386.971	641.407
386.976	658.808
386.981	661.808
386.985	668.209
386.99	697.309
386.995	703.81
386.999	693.41
387.004	714.81
387.009	727.611
387.013	679.811
387.018	639.512
387.023	637.112
387.028	647.813
387.032	645.713
387.037	631.614
387.042	627.414
387.046	626.515
387.051	627.815
387.056	637.816
387.06	651.116
387.065	649.517
387.07	634.817
387.074	634.117
387.079	640.718
387.084	646.718
387.088	667.819
387.093	692.619
387.098	685.52
387.103	652.32
387.107	640.121
387.112	635.921
387.117	631.522
387.121	627.622
387.126	631.823
387.131	659.023
387.135	742.124
387.14	801.224
387.145	728.825
387.149	656.325
387.154	642.726
387.159	669.326
387.163	807.626
387.168	1180.03
387.173	1505.83
387.177	1269.73
387.182	868.128
387.187	735.129
387.192	833.129
387.196	1479.13
387.201	4192.43
387.206	8884.53
387.21	9519.03
387.215	5051.43
387.22	1731.43
387.224	834.033
387.229	678.033
387.234	658.134
387.238	652.334
387.243	644.135
387.248	641.935
387.252	649.935
387.257	682.736
387.262	750.636
387.266	789.837
387.271	729.237
387.276	660.338
387.281	634.638
387.285	627.039
387.29	624.539
387.295	627.54
387.299	633.14
387.304	638.641
387.309	640.141
387.313	636.042
387.318	630.042
387.323	630.043
387.327	628.943
387.332	627.443
387.337	630.244
387.341	642.944
387.346	657.345
387.351	694.645
387.355	943.846
387.36	1798.95
387.365	2770.65
387.37	2339.45
387.374	1230.05
387.379	731.948
387.384	639.649
387.388	624.549
387.393	622.25
387.398	620.15
387.402	621.251
387.407	621.151
387.412	620.752
387.416	622.552
387.421	621.452
387.426	621.953
387.43	626.453
387.435	640.454
387.44	680.054
387.444	818.755
387.449	1046.46
387.454	1056.06
387.458	806.356
387.463	656.257
387.468	633.557
387.473	639.058
387.477	707.558
387.482	1088.06
387.487	2415.86
387.491	4227.16
387.496	4080.76
387.501	2197.66
387.505	975.961
387.51	684.661
387.515	636.162
387.519	624.362
387.524	625.063
387.529	629.863
387.533	632.464
387.538	625.764
387.543	620.665
387.547	616.965
387.552	617.166
387.557	619.966
387.561	631.567
387.566	647.767
387.571	643.867
387.576	628.168
387.58	617.169
387.585	616.369
387.59	616.57
387.594	620.97
387.599	639.37
387.604	668.671
387.608	676.471
387.613	649.072
387.618	629.872
387.622	625.673
387.627	621.273
387.632	617.574
387.636	616.874
387.641	619.775
387.646	634.275
387.65	658.576
387.655	657.976
387.66	634.277
387.664	618.877
387.669	615.677
387.674	617.878
387.678	616.678
387.683	619.679
387.688	624.279
387.693	628.28
387.697	643.48
387.702	712.181
387.707	825.381
387.711	825.682
387.716	723.082
387.721	646.583
387.725	625.783
387.73	620.484
387.735	621.684
387.739	627.885
387.744	638.585
387.749	650.586
387.753	648.286
387.758	652.986
387.763	702.687
387.767	838.587
387.772	1033.29
387.777	1099.19
387.781	906.589
387.786	718.389
387.791	650.59
387.795	634.79
387.8	625.991
387.805	625.791
387.809	636.092
387.814	691.192
387.819	825.893
387.824	929.693
387.828	846.193
387.833	712.594
387.838	679.694
387.842	711.695
387.847	708.496
387.852	662.596
387.856	652.096
387.861	685.497
387.866	734.897
387.87	747.298
387.875	715.198
387.88	671.699
387.884	643.599
387.889	628.7
387.894	622.5
387.898	619.901
387.903	621.201
387.908	620.702
387.912	622.802
387.917	629.103
387.922	657.103
387.926	724.203
387.931	783.404
387.936	743.004
387.94	668.605
387.945	645.505
387.95	705.606
387.954	852.306
387.959	910.007
387.964	767.807
387.969	658.908
387.973	640.608
387.978	647.709
387.983	645.309
387.987	648.41
387.992	693.61
387.997	792.11
388.001	846.011
388.006	795.211
388.011	758.312
388.015	755.912
388.02	784.413
388.025	922.613
388.029	1055.31
388.034	1074.21
388.039	1042.01
388.043	947.215
388.048	1109.72
388.053	2803.22
388.057	8131.12
388.062	14272.3
388.067	12516
388.071	5691.62
388.076	1733.92
388.081	829.119
388.085	684.319
388.09	671.52
388.095	679.92
388.099	675.421
388.104	654.121
388.109	635.822
388.113	628.922
388.118	630.323
388.123	632.123
388.128	631.224
388.132	634.424
388.137	632.225
388.142	626.125
388.146	622.026
388.151	620.526
388.156	621.427
388.16	618.527
388.165	618.027
388.17	617.528
388.174	618.028
388.179	617.429
388.184	624.229
388.188	627.13
388.193	622.33
388.198	618.031
388.202	618.531
388.207	617.532
388.212	617.632
388.216	617.733
388.221	615.733
388.226	613.334
388.23	614.334
388.235	615.535
388.24	617.235
388.244	617.536
388.249	627.036
388.254	643.637
388.258	646.737
388.263	634.837
388.268	619.138
388.272	613.338
388.277	613.139
388.282	611.539
388.286	612.94
388.291	619.54
388.296	659.541
388.3	788.841
388.305	938.442
388.31	928.942
388.315	834.043
388.319	782.043
388.324	715.344
388.329	652.244
388.333	639.145
388.338	656.845
388.343	666.745
388.347	649.646
388.352	627.946
388.357	615.647
388.361	616.847
388.366	617.948
388.371	617.048
388.375	614.149
388.38	611.049
388.385	610.45
388.389	610.65
388.394	614.351
388.399	625.751
388.403	643.052
388.408	647.952
388.413	632.853
388.417	618.553
388.422	619.553
388.427	652.054
388.431	720.154
388.436	755.955
388.441	703.355
388.445	641.956
388.45	616.056
388.455	611.557
388.459	617.257
388.464	630.458
388.469	641.658
388.473	630.859
388.478	617.159
388.483	610.96
388.487	610.26
388.492	618.561
388.497	636.861
388.501	653.562
388.506	645.162
388.511	624.162
388.515	612.863
388.52	611.863
388.525	611.664
388.529	609.964
388.534	609.865
388.539	609.665
388.543	612.666
388.548	614.866
388.553	623.867
388.557	668.467
388.562	794.368
388.567	921.768
388.572	880.469
388.576	729.969
388.581	636.57
388.586	614.57
388.59	610.47
388.595	609.471
388.6	610.171
388.604	610.972
388.609	609.472
388.614	611.973
388.618	615.273
388.623	626.574
388.628	640.074
388.632	634.275
388.637	621.675
388.642	613.276
388.646	611.476
388.651	610.077
388.656	611.177
388.66	618.678
388.665	623.978
388.67	623.779
388.674	627.879
388.679	631.379
388.684	624.28
388.688	614.68
388.693	610.781
388.698	609.181
388.702	611.782
388.707	613.182
388.712	617.883
388.716	622.083
388.721	621.284
388.726	618.984
388.73	616.185
388.735	613.485
388.74	613.686
388.744	612.086
388.749	611.187
388.754	612.087
388.758	620.888
388.763	633.988
388.768	644.388
388.772	634.989
388.777	627.489
388.782	626.49
388.786	625.59
388.791	623.391
388.796	623.391
388.8	659.392
388.805	767.792
388.81	912.193
388.814	951.493
388.819	879.994
388.824	760.894
388.828	670.695
388.833	643.495
388.838	670.296
388.842	712.396
388.847	706.996
388.852	667.197
388.856	637.997
388.861	627.698
388.866	640.098
388.87	646.899
388.875	637.999
388.88	627.8
388.884	619
388.889	614.601
388.894	611.401
388.898	611.002
388.903	611.202
388.908	613.103
388.912	615.903
388.917	614.004
388.922	611.404
388.926	611.404
388.931	613.305
388.936	617.005
388.94	617.106
388.945	617.806
388.95	625.507
388.954	678.907
388.959	805.608
388.964	919.508
388.968	856.409
388.973	721.109
388.978	648.21
388.982	647.01
388.987	701.81
388.992	816.311
388.996	897.312
