#Acq. time (s)=	0.15
#Accumulations=	20
#Range (nm)=	454...467
#Windows=	2
#Auto scanning=	Off
#Autofocus=	Off
#AutoExposure=	Off
#Spike filter=	Off
#Delay time (s)=	0
#Binning=	1
#Readout mode=	Signal
#DeNoise=	Off
#ICS correction=	Off
#Dark correction=	Off
#Inst. Process=	Off
#Detector temperature (°C)=	-75.38
#Instrument=	OSD
#Detector=	Synapse
#Grating=	2400
#Front entrance slit=	20
#Exit mirror=	Side
#Full time(mm:ss)=	4:00
#Project=	
#Sample=	
#Site=	
#Title=	W_Ar_DC_3Pa_1493W_439V_3_4A
#Remark=	
#Date=	10.12.2019 10:16
#Acquired=	10.12.2019 10:16:02
454.002	629.1
454.006	634.3
454.01	640.1
454.015	631
454.019	624
454.024	620.2
454.028	617.9
454.032	617.1
454.037	616.1
454.041	616.9
454.046	617
454.05	617.7
454.054	620.5
454.059	623.9
454.063	624.3
454.067	620.5
454.072	620
454.076	619.5
454.081	621.1
454.085	619.5
454.089	621.9
454.094	624.8
454.098	626.5
454.103	624.7
454.107	623.1
454.111	623.7
454.116	621.6
454.12	624.2
454.125	630.2
454.129	631.6
454.133	630.7
454.138	638.7
454.142	649.7
454.147	648.8
454.151	642.2
454.155	636.2
454.16	630.3
454.164	627.8
454.168	625.9
454.173	625
454.177	624.4
454.182	623.5
454.186	623.7
454.19	626.4
454.195	627.2
454.199	629.2
454.204	641.7
454.208	663.7
454.212	702.9
454.217	771.3
454.221	860.6
454.226	902.7
454.23	879.8
454.234	819.9
454.239	714.4
454.243	661.2
454.247	663.6
454.252	734.9
454.256	933.4
454.261	1162.5
454.265	1117.2
454.269	915.4
454.274	984.4
454.278	1593.6
454.283	2467.4
454.287	2470.3
454.291	1548.2
454.296	944.1
454.3	807.4
454.305	773.3
454.309	705.6
454.313	672.2
454.318	705.6
454.322	725.4
454.326	685.5
454.331	645.5
454.335	635.3
454.34	635.9
454.344	637.3
454.348	636.3
454.353	637.2
454.357	644.9
454.362	667.9
454.366	717.3
454.37	764.3
454.375	744.3
454.379	726.2
454.384	813.7
454.388	979.6
454.392	1005.8
454.397	853.6
454.401	732
454.405	718.7
454.41	740.3
454.414	806.3
454.419	971.2
454.423	1371.3
454.427	2748.3
454.432	8796
454.436	23709.7
454.441	29673.7
454.445	15366.4
454.449	3962.6
454.454	1296
454.458	860.9
454.462	755.4
454.467	716.3
454.471	706.1
454.476	720.5
454.48	763.5
454.484	784.6
454.489	746.3
454.493	690.7
454.498	668.2
454.502	667.6
454.506	652
454.511	637.7
454.515	631.5
454.52	633.5
454.524	643.4
454.528	650.7
454.533	655.1
454.537	666.1
454.541	665.2
454.546	658.4
454.55	645.8
454.555	635.4
454.559	635.4
454.563	623.9
454.568	740.4
454.572	1070.7
454.577	2043.6
454.581	3198.7
454.585	2882.8
454.59	1548.5
454.594	841.4
454.598	665.5
454.603	630.1
454.607	624.8
454.612	626.4
454.616	628.2
454.62	625.7
454.625	620.4
454.629	615.1
454.634	615.8
454.638	615.4
454.642	615.1
454.647	615.6
454.651	615.8
454.655	614.9
454.66	615.3
454.664	617.2
454.669	622.5
454.673	631.6
454.677	649.6
454.682	672.3
454.686	662
454.691	636.1
454.695	627.7
454.699	647.5
454.704	725.2
454.708	831.7
454.712	807.3
454.717	681
454.721	641.1
454.726	649
454.73	647.3
454.734	632.4
454.739	619.8
454.743	612.8
454.748	611.2
454.752	611.6
454.756	611.9
454.761	611
454.765	612
454.769	611.1
454.774	611.4
454.778	613.2
454.783	611.9
454.787	613.6
454.791	615.1
454.796	620.3
454.8	627.4
454.805	628.9
454.809	627.3
454.813	627.4
454.818	626.5
454.822	623.7
454.826	624.9
454.831	627.6
454.835	625.3
454.84	618.6
454.844	614.5
454.848	612.5
454.853	611.1
454.857	613.3
454.862	612.6
454.866	613.8
454.87	616.8
454.875	624.4
454.879	638.6
454.883	668
454.888	679.1
454.892	653.8
454.897	627.5
454.901	615.4
454.905	612.9
454.91	612.8
454.914	613.6
454.919	615.9
454.923	618.9
454.927	616
454.932	614.3
454.936	613.6
454.94	613.9
454.945	614.2
454.949	614.1
454.954	623.6
454.958	649
454.962	695.3
454.967	704.3
454.971	660.8
454.975	630.3
454.98	622.9
454.984	627.3
454.989	643.7
454.993	650.4
454.997	636.4
455.002	622.2
455.006	616.6
455.011	615
455.015	614.9
455.019	617.6
455.024	628.4
455.028	645.4
455.032	665.3
455.037	657.5
455.041	639.1
455.046	622.6
455.05	621.5
455.054	619.6
455.059	624.6
455.063	625.8
455.067	624.3
455.072	620.9
455.076	618.8
455.081	623.1
455.085	630.8
455.089	641.8
455.094	657.6
455.098	713.8
455.103	915.1
455.107	1499.8
455.111	3073.8
455.116	5181.4
455.12	5020.9
455.124	2645.6
455.129	1143
455.133	732.6
455.138	657.2
455.142	657.9
455.146	656.3
455.151	639.9
455.155	624.8
455.159	622.8
455.164	629.6
455.168	647.3
455.173	713.2
455.177	964.9
455.181	1584.6
455.186	1975
455.19	1494.9
455.194	886.3
455.199	672.1
455.203	626.1
455.208	617
455.212	614.7
455.216	614.3
455.221	613.6
455.225	611
455.23	614.1
455.234	613.2
455.238	612.8
455.243	618.7
455.247	634.8
455.251	668.5
455.256	685.5
455.26	663.6
455.265	644.2
455.269	635.3
455.273	630.1
455.278	625.3
455.282	618.6
455.286	630.2
455.291	673.3
455.295	743.9
455.3	760
455.304	691
455.308	638.1
455.313	617.5
455.317	612.4
455.321	611.5
455.326	613.7
455.33	620.3
455.335	630.4
455.339	632.9
455.343	626.9
455.348	625.2
455.352	622
455.357	620.9
455.361	626.1
455.365	627.9
455.37	623.6
455.374	614.4
455.378	614.4
455.383	616.3
455.387	627.9
455.392	658.2
455.396	691.8
455.4	692.8
455.405	659.5
455.409	626.3
455.413	618
455.418	617.4
455.422	625.4
455.427	645.9
455.431	700.6
455.435	774.1
455.44	836.4
455.444	999.1
455.448	1177.4
455.453	1076.4
455.457	853.5
455.462	791.5
455.466	784.7
455.47	707
455.475	645.1
455.479	635.8
455.483	649.7
455.488	651.1
455.492	633.5
455.497	619
455.501	612.8
455.505	611.4
455.51	612.8
455.514	610.3
455.518	611.5
455.523	614.3
455.527	615.7
455.532	615.9
455.536	612.7
455.54	615.5
455.545	624.4
455.549	655.7
455.553	687.3
455.558	671.8
455.562	634.1
455.567	620.5
455.571	620
455.575	617.7
455.58	613.7
455.584	613.6
455.588	612.4
455.593	613.2
455.597	613.5
455.602	620.6
455.606	649.2
455.61	729.2
455.615	825.3
455.619	823.8
455.623	727.8
455.628	640.4
455.632	617.2
455.637	613.1
455.641	611.8
455.645	614.3
455.65	616.3
455.654	619.3
455.658	620
455.663	629.2
455.667	668.3
455.672	705.3
455.676	679.4
455.68	633.3
455.685	613.8
455.689	610.4
455.693	609.9
455.698	612.1
455.702	621.6
455.707	640.8
455.711	665.7
455.715	661.2
455.72	632
455.724	615.9
455.728	610.7
455.733	610.4
455.737	609.8
455.742	611.5
455.746	610.3
455.75	609.8
455.755	610.8
455.759	611.3
455.763	613.1
455.768	613.1
455.772	614.7
455.777	611.5
455.781	609.6
455.785	610.4
455.79	612.2
455.794	615.4
455.798	615
455.803	613.7
455.807	612.4
455.812	618.9
455.816	638.5
455.82	717.2
455.825	903.3
455.829	1026.4
455.833	937.9
455.838	924.1
455.842	975.6
455.846	864
455.851	700.5
455.855	632.4
455.86	615.3
455.864	612
455.868	616.6
455.873	621.2
455.877	617.8
455.881	614.6
455.886	614.1
455.89	612.2
455.895	610.9
455.899	617.9
455.903	635.9
455.908	658.3
455.912	659.1
455.916	637.3
455.921	618.5
455.925	611.9
455.93	612.4
455.934	618.8
455.938	624.7
455.943	621.8
455.947	615.9
455.951	613.3
455.956	611.4
455.96	610.2
455.965	612.3
455.969	619.8
455.973	651.1
455.978	712.2
455.982	730.2
455.986	678.3
455.991	634.7
455.995	618.8
456	611
456.004	611.2
456.008	613.1
456.013	621
456.017	634.3
456.021	649.5
456.026	673.7
456.03	693.3
456.034	672.8
456.039	634.4
456.043	618.4
456.048	614.8
456.052	617.2
456.056	619
456.061	614.6
456.065	610.5
456.069	610.8
456.074	611.9
456.078	615.5
456.083	615.5
456.087	614.3
456.091	614.1
456.096	614.3
456.1	617.7
456.104	618.4
456.109	613.7
456.113	611.8
456.117	612.5
456.122	613.8
456.126	613.6
456.131	612.1
456.135	612.4
456.139	616.3
456.144	617
456.148	617.1
456.152	621
456.157	624.9
456.161	628.1
456.166	628.3
456.17	616.3
456.174	613.3
456.179	613.1
456.183	611.5
456.187	613.5
456.192	616.2
456.196	622
456.201	619.7
456.205	615.2
456.209	611.4
456.214	610.2
456.218	611.3
456.222	611.8
456.227	610.9
456.231	611.9
456.235	613.5
456.24	612.8
456.244	612.6
456.249	612.5
456.253	611.7
456.257	613.6
456.262	616.7
456.266	620.2
456.27	624.7
456.275	647.7
456.279	755.7
456.283	1122.5
456.288	1612
456.292	1561.6
456.297	1085.4
456.301	955.5
456.305	987.4
456.31	834.7
456.314	678
456.318	635.4
456.323	627.6
456.327	637.9
456.332	703.4
456.336	804.5
456.34	795.1
456.345	687.6
456.349	629.2
456.353	619.6
456.358	627.7
456.362	682.1
456.366	889.8
456.371	1085
456.375	928.4
456.38	708.9
456.384	670.5
456.388	654.4
456.393	630.4
456.397	620.1
456.401	623
456.406	623.1
456.41	617.1
456.414	614
456.419	612.6
456.423	614.2
456.428	623
456.432	632.6
456.436	635.7
456.441	634.3
456.445	650.9
456.449	694.1
456.454	762
456.458	858
456.463	882.9
456.467	771.3
456.471	666.6
456.476	636.6
456.48	631.3
456.484	620.5
456.489	618
456.493	616.7
456.497	614.4
456.502	611.6
456.506	609.3
456.511	611.1
456.515	611.5
456.519	611.6
456.524	612.1
456.528	618.2
456.532	629.9
456.537	634.5
456.541	643.9
456.545	692.4
456.55	771.8
456.554	762.4
456.559	674.5
456.563	630.6
456.567	639
456.572	706.1
456.576	798.1
456.58	799.3
456.585	729.7
456.589	673.7
456.593	647
456.598	627
456.602	616.6
456.607	612.1
456.611	610.7
456.615	611.7
456.62	613.1
456.624	612.1
456.628	614
456.633	614.4
456.637	618.1
456.641	634.4
456.646	657.9
456.65	659.3
456.655	634.6
456.659	617.4
456.663	612.4
456.668	612.2
456.672	615.2
456.676	632.3
456.681	700.1
456.685	820.5
456.689	852.4
456.694	738.8
456.698	646
456.703	618.5
456.707	612
456.711	612.7
456.716	617.1
456.72	619.6
456.724	624.7
456.729	631.1
456.733	629.2
456.737	629
456.742	633.9
456.746	631.1
456.751	624
456.755	621
456.759	618.9
456.764	631.8
456.768	673.9
456.772	697.1
456.777	673.5
456.781	660
456.785	709.8
456.79	761.3
456.794	719.7
456.799	656.2
456.803	628.4
456.807	617
456.812	616.1
456.816	618.9
456.82	618
456.825	619
456.829	626.7
456.833	632.6
456.838	627.6
456.842	616.2
456.847	617.1
456.851	619.4
456.855	616.3
456.86	613.3
456.864	611.4
456.868	609.1
456.873	610.2
456.877	611.6
456.881	619.1
456.886	646.1
456.89	675.2
456.895	666.3
456.899	636.5
456.903	620.9
456.908	621.3
456.912	624.7
456.916	623.8
456.921	620.7
456.925	617.2
456.929	615.5
456.934	625.4
456.938	632.9
456.942	626.9
456.947	616.2
456.951	614.4
456.956	632.3
456.96	680.5
456.964	740.9
456.969	728
456.973	668.3
456.977	660.5
456.982	767.9
456.986	1216.7
456.99	2113.8
456.995	2437.8
456.999	1658.8
457.004	913.8
457.008	678.5
457.012	627.7
457.017	617.2
457.021	613.7
457.025	612.9
457.03	611.6
457.034	610
457.038	611.1
457.043	611
457.047	611.2
457.051	610.8
457.056	611.2
457.06	610.3
457.065	611
457.069	610
457.073	609.7
457.078	609.5
457.082	608.6
457.086	609.1
457.091	610.7
457.095	610.4
457.099	612.6
457.104	617.2
457.108	637.9
457.112	703.3
457.117	781.3
457.121	764.5
457.126	671.8
457.13	624.6
457.134	611.7
457.139	611.7
457.143	611.4
457.147	611.7
457.152	613.6
457.156	612.5
457.16	613
457.165	620.8
457.169	644.4
457.173	667.8
457.178	659.8
457.182	635.3
457.187	621
457.191	618.3
457.195	621.5
457.2	624.7
457.204	625.3
457.208	621.6
457.213	631
457.217	645.1
457.221	640.2
457.226	628.5
457.23	625
457.234	617.9
457.239	611.6
457.243	609.2
457.248	609.3
457.252	608
457.256	608.3
457.261	608.4
457.265	609.5
457.269	607.8
457.274	608
457.278	609.4
457.282	612.6
457.287	616.9
457.291	619.3
457.296	617.5
457.3	612.7
457.304	612.6
457.309	628.3
457.313	653.5
457.317	651.5
457.322	629.9
457.326	616
457.33	614.1
457.335	611
457.339	610.8
457.343	609.5
457.348	610.1
457.352	612
457.356	615.1
457.361	613.8
457.365	623.6
457.37	635.5
457.374	632.4
457.378	620.6
457.383	612
457.387	612.3
457.391	618
457.396	623.2
457.4	621.4
457.404	613.6
457.409	610.4
457.413	610.8
457.417	612.4
457.422	613.9
457.426	617.7
457.431	616.4
457.435	611.3
457.439	613.1
457.444	616.8
457.448	619.3
457.452	616.9
457.457	620.2
457.461	629.9
457.465	632.5
457.47	624.8
457.474	616.8
457.478	615.4
457.483	620.7
457.487	642.7
457.491	693.3
457.496	724.7
457.5	682.2
457.505	637.8
457.509	621.5
457.513	621.2
457.518	622.6
457.522	624.3
457.526	633.4
457.531	651.6
457.535	659.6
457.539	674.4
457.544	671.8
457.548	644.7
457.552	626.5
457.557	623.2
457.561	622.1
457.565	616.8
457.57	612.8
457.574	616.4
457.579	620.3
457.583	626.2
457.587	628
457.592	633.2
457.596	637.5
457.6	634.8
457.605	624.9
457.609	620.9
457.613	622.5
457.618	622.4
457.622	635.1
457.626	663.4
457.631	706.8
457.635	723.9
457.639	682
457.644	638.1
457.648	622.3
457.653	620.2
457.657	624.9
457.661	632.6
457.666	637.3
457.67	631.9
457.674	623.2
457.679	623.6
457.683	624.3
457.687	621.8
457.692	621.1
457.696	626.5
457.7	659.8
457.705	697.3
457.709	676
457.714	637.7
457.718	625
457.722	624.4
457.727	630.6
457.731	640.3
457.735	639.2
457.74	634.4
457.744	632.6
457.748	655.3
457.753	788.1
457.757	1127.6
457.761	1317.6
457.766	1027.1
457.77	728.7
457.774	641.7
457.779	627.1
457.783	632.6
457.787	646.7
457.792	654.2
457.796	643.8
457.801	634.4
457.805	630.1
457.809	629.9
457.814	629.4
457.818	630
457.822	634.1
457.827	636.1
457.831	644.4
457.835	656.5
457.84	677.6
457.844	731.3
457.848	939
457.853	2153.9
457.857	7220.5
457.861	13621.4
457.866	11112.1
457.87	3927.4
457.874	1211.2
457.879	821.4
457.883	768.5
457.888	805.5
457.892	1022.3
457.896	1242.8
457.901	1099.9
457.905	811.9
457.909	671.5
457.914	642.8
457.918	656.7
457.922	689.8
457.927	696.9
457.931	665.2
457.935	633.6
457.94	620.4
457.944	619.1
457.948	618.9
457.953	627.3
457.957	639.3
457.961	636.9
457.966	624.6
457.97	617.6
457.975	615.3
457.979	618.1
457.983	643.5
457.988	722.9
457.992	845.1
457.996	893.6
458.001	782.6
458.005	668.4
458.009	624.6
458.014	615.6
458.018	615.2
458.022	616.2
458.027	616.1
458.031	614.2
458.035	618.3
458.04	622.1
458.044	618.5
458.048	615
458.053	610.6
458.057	609.7
458.061	610.3
458.066	614.3
458.07	618.6
458.075	620.3
458.079	615.6
458.083	615.1
458.088	616.7
458.092	619.8
458.096	622.8
458.101	617.1
458.105	618.2
458.109	636.2
458.114	668
458.118	676.5
458.122	646.4
458.127	623.4
458.131	619.1
458.135	620.9
458.14	619.8
458.144	617.8
458.148	616.1
458.153	612.4
458.157	610.2
458.161	608.7
458.166	610.7
458.17	610.2
458.175	611.6
458.179	617.7
458.183	626.3
458.188	638.3
458.192	656.8
458.196	656.4
458.201	636.5
458.205	623.5
458.209	616.5
458.214	613.2
458.218	612
458.222	610.8
458.227	612.1
458.231	615
458.235	622.5
458.24	637.3
458.244	638.5
458.248	631.3
458.253	620
458.257	616.2
458.261	614.5
458.266	614.9
458.27	622.6
458.275	626.7
458.279	620.4
458.283	612.3
458.288	610.2
458.292	609.8
458.296	611.4
458.301	612
458.305	612.8
458.309	615.1
458.314	613.1
458.318	613.2
458.322	612
458.327	612
458.331	610.9
458.335	611.8
458.34	614.9
458.344	625.1
458.348	642.1
458.353	653.3
458.357	643.6
458.361	632.8
458.366	635.9
458.37	638.7
458.374	635.4
458.379	625.8
458.383	618.9
458.387	613.7
458.392	613.7
458.396	612.2
458.401	616.8
458.405	619.3
458.409	618.2
458.414	621.4
458.418	640.4
458.422	652.1
458.427	635.7
458.431	618.1
458.435	613.2
458.44	613.2
458.444	611.6
458.448	610.3
458.453	611.7
458.457	611.7
458.461	611.3
458.466	613.8
458.47	614.5
458.474	614.2
458.479	613
458.483	612
458.487	614
458.492	615.4
458.496	617.2
458.5	615.4
458.505	615.9
458.509	613.2
458.513	615
458.518	615.5
458.522	617.8
458.526	618.4
458.531	618.3
458.535	620.4
458.539	620.8
458.544	625
458.548	624.5
458.553	620.6
458.557	619.1
458.561	617.8
458.566	618.2
458.57	619.3
458.574	622.2
458.579	628.7
458.583	646.1
458.587	662.8
458.592	691.5
458.596	838
458.6	1533.1
458.605	3296.9
458.609	5042.2
458.613	4313.6
458.618	2223.9
458.622	1018
458.626	708.1
458.631	647.6
458.635	632.7
458.639	630.5
458.644	631.1
458.648	634.7
458.652	634.6
458.657	639
458.661	643.6
458.665	645.9
458.67	641.6
458.674	639.4
458.678	637.7
458.683	637.2
458.687	638
458.691	639.3
458.696	636.6
458.7	633.6
458.704	634.5
458.709	641.7
458.713	659.7
458.717	662.8
458.722	648.7
458.726	640.7
458.731	637.4
458.735	632.4
458.739	628.3
458.744	625.5
458.748	624.3
458.752	625
458.757	625.3
458.761	625.2
458.765	625.6
458.77	625.5
458.774	629.6
458.778	642.8
458.783	697.9
458.787	869.9
458.791	1289.7
458.796	1965.8
458.8	2293.2
458.804	1735.6
458.809	1021.2
458.813	753.8
458.817	774.5
458.822	873
458.826	868.1
458.83	772
458.835	706.4
458.839	673
458.843	653.2
458.848	669.4
458.852	713.8
458.856	716.3
458.861	674.1
458.865	646.5
458.869	641.4
458.874	648.3
458.878	656.7
458.882	666.9
458.887	679.1
458.891	707.5
458.895	765.5
458.9	1010
458.904	2587.6
458.908	9750.5
458.913	22106.6
458.917	22578
458.921	10337.9
458.926	2411.5
458.93	931.3
458.934	739.2
458.939	690.2
458.943	669.7
458.947	657.6
458.952	651.6
458.956	647.7
458.961	643.4
458.965	649.4
458.969	665.7
458.974	691.5
458.978	708.2
458.982	717.9
458.987	718.4
458.991	700.5
458.995	690.4
459	708.9
459.004	699.9
459.008	658.5
459.013	630
459.017	623.4
459.021	622.7
459.026	623.1
459.03	628.5
459.034	638.2
459.039	648.9
459.043	655.5
459.047	664
459.052	659.2
459.056	639.9
459.06	632.3
459.065	633.4
459.069	632.5
459.073	636.9
459.078	637
459.082	635.1
459.086	629.2
459.091	630.4
459.095	634.3
459.099	632.1
459.104	627.2
459.108	622.8
459.112	620.9
459.117	624.4
459.121	628.3
459.125	624.6
459.13	625.4
459.134	624.7
459.138	626.7
459.143	634.7
459.147	661.4
459.151	785.8
459.156	1383.3
459.16	3231.3
459.164	5582.4
459.169	5377.8
459.173	3149.8
459.177	2001.1
459.182	1931.1
459.186	1526.1
459.19	961.7
459.195	702.2
459.199	640
459.203	627.9
459.208	625.2
459.212	622.7
459.216	622.6
459.221	620.3
459.225	622
459.229	628.7
459.234	646.8
459.238	661.1
459.242	654.8
459.247	632.2
459.251	620.5
459.255	621
459.26	621.5
459.264	630.5
459.268	641.3
459.273	648.2
459.277	656.4
459.281	679.6
459.286	684.1
459.29	656.9
459.294	630.1
459.299	617.1
459.303	615.4
459.307	615.8
459.312	623.5
459.316	625.3
459.32	619.1
459.325	614.2
459.329	612.1
459.333	612.6
459.338	611
459.342	614.7
459.346	622.3
459.351	633.3
459.355	636.8
459.359	626.8
459.364	615.2
459.368	612.8
459.372	613.8
459.377	617.1
459.381	623.8
459.385	623.6
459.39	619
459.394	613.8
459.398	612.9
459.403	616.7
459.407	618.9
459.411	627.1
459.416	636.5
459.42	634.8
459.424	624.7
459.429	614.4
459.433	613.1
459.437	614.3
459.442	617
459.446	622
459.45	623.6
459.455	619.6
459.459	615.3
459.463	614.5
459.468	614.8
459.472	618.4
459.476	619.7
459.481	616.3
459.485	612.9
459.489	615.4
459.494	615
459.498	617.9
459.502	621.8
459.507	634.9
459.511	650.5
459.515	659.8
459.52	686
459.524	897.1
459.528	1567.2
459.533	2292.2
459.537	1932.8
459.541	1099.3
459.546	700.7
459.55	634.5
459.554	625.5
459.559	622
459.563	623.6
459.567	629.4
459.572	635
459.576	637.9
459.58	648.3
459.585	677.2
459.589	705.5
459.593	692.3
459.598	651.6
459.602	624.3
459.606	613.8
459.611	615.7
459.615	619.9
459.619	619.8
459.624	622.3
459.628	629.3
459.632	633.1
459.637	625.7
459.641	620.2
459.645	618.4
459.65	618.9
459.654	620.6
459.658	620.4
459.663	623.3
459.667	630.7
459.671	633.4
459.676	627.9
459.68	621.9
459.684	618.8
459.689	615.1
459.693	612.2
459.697	612.5
459.702	614.1
459.706	612.1
459.71	612.5
459.715	612.9
459.719	614.9
459.723	621
459.728	626.6
459.732	630.5
459.736	629.3
459.741	632.4
459.745	642.1
459.749	652.2
459.754	653.4
459.758	643.3
459.762	628.8
459.767	621.6
459.771	626.1
459.775	647
459.78	683.3
459.784	731.9
459.788	938.8
459.792	1831.5
459.797	3372.5
459.801	3645.1
459.805	2234.1
459.81	997.1
459.814	680
459.818	641.7
459.823	635.2
459.827	647.3
459.831	679.4
459.836	712.3
459.84	700.5
459.844	669.3
459.849	638.7
459.853	624.5
459.857	626.9
459.862	650.4
459.866	701.2
459.87	728.8
459.875	699.9
459.879	648.9
459.883	626.4
459.888	620.6
459.892	620.4
459.896	623
459.901	642.2
459.905	738
459.909	1083.3
459.914	1761.8
459.918	2210.6
459.922	1842.8
459.927	1143.5
459.931	753.2
459.935	646.3
459.94	626.8
459.944	629.4
459.948	643.7
459.953	674.6
459.957	767.2
459.961	956.9
459.966	1098.4
459.97	998.7
459.974	782.1
459.979	658.7
459.983	628.5
459.987	630.4
459.992	638.4
459.996	647.5
460	666.7
460.005	678.4
460.009	694.1
460.013	729.1
460.018	759.6
460.022	731
460.026	673.6
460.03	632.8
460.035	617.2
460.039	614.4
460.043	614
460.048	619.4
460.052	624.1
460.056	622.8
460.061	617
460.065	615.9
460.069	623.5
460.074	627.4
460.078	620.9
460.082	613.7
460.087	611.1
460.091	609.7
460.095	610.8
460.1	612.1
460.104	613.2
460.108	611.9
460.113	610.5
460.117	610.3
460.121	611.7
460.126	615.5
460.13	617.4
460.134	618.1
460.139	616.2
460.143	613.6
460.147	613.9
460.152	611.5
460.156	615.8
460.16	627.6
460.165	651.9
460.169	665.3
460.173	650.8
460.178	628.7
460.182	616.2
460.186	610.7
460.191	610
460.195	610.9
460.199	612.4
460.203	611.4
460.208	611.8
460.212	609.1
460.216	608.8
460.221	610.6
460.225	610.6
460.229	613.5
460.234	617.3
460.238	626.8
460.242	651.9
460.247	698.6
460.251	739.4
460.255	737.5
460.26	744
460.264	763.5
460.268	737.6
460.273	668
460.277	625.4
460.281	614
460.286	612.3
460.29	612.7
460.294	613.3
460.299	612.6
460.303	611.6
460.307	610.3
460.312	611.1
460.316	615.7
460.32	624.9
460.325	637.8
460.329	637
460.333	629.4
460.337	621.4
460.342	617.2
460.346	614
460.35	613.9
460.355	613.6
460.359	613.5
460.363	613.9
460.368	618.6
460.372	638.5
460.376	668.3
460.381	682.1
460.385	667.1
460.389	638.7
460.394	625.1
460.398	636.4
460.402	661.7
460.407	678.5
460.411	666.8
460.415	642.7
460.42	626.4
460.424	621.4
460.428	618.2
460.433	613.3
460.437	611.7
460.441	613.4
460.446	619
460.45	626
460.454	629.7
460.458	629.7
460.463	623.7
460.467	617.7
460.471	612.6
460.476	612.1
460.48	611.6
460.484	613.3
460.489	613.3
460.493	612.7
460.497	612.6
460.502	611.4
460.506	613.3
460.51	614.1
460.515	614.9
460.519	618.7
460.523	620
460.528	623.8
460.532	638.4
460.536	669.4
460.541	699
460.545	690.9
460.549	661.4
460.554	631.1
460.558	620.6
460.562	622.1
460.566	623.4
460.571	630.1
460.575	634
460.579	639.2
460.584	635.8
460.588	630.2
460.592	626.5
460.597	627.1
460.601	628.5
460.605	628.7
460.61	635.4
460.614	665.9
460.618	721.8
460.623	750.8
460.627	728.1
460.631	675.4
460.636	645.7
460.64	633.5
460.644	630.3
460.649	628.9
460.653	630.9
460.657	633.9
460.662	635.7
460.666	642.2
460.67	653.1
460.674	670.4
460.679	702.1
460.683	733.5
460.687	728.3
460.692	692.5
460.696	652.4
460.7	639.6
460.705	644.3
460.709	645.1
460.713	649.1
460.718	660.1
460.722	666.5
460.726	660.9
460.731	655.7
460.735	659.2
460.739	662.9
460.744	659.9
460.748	648.5
460.752	640.9
460.757	637.9
460.761	637.5
460.765	639.4
460.769	640.5
460.774	639.2
460.778	639.2
460.782	637.8
460.787	639.8
460.791	652.6
460.795	688.5
460.8	756.8
460.804	805.5
460.808	788.3
460.813	716.9
460.817	672.2
460.821	660.6
460.826	660.1
460.83	665.6
460.834	670.1
460.839	677.6
460.843	690.1
460.847	709.1
460.852	737.3
460.856	809.8
460.86	1106.9
460.864	3069
460.869	11838.4
460.873	27607.9
460.877	36153.4
460.882	27108.4
460.886	10842.3
460.89	2436.3
460.895	1084.5
460.899	1150.6
460.903	1958.2
460.908	3279.3
460.912	3985.5
460.916	3209.3
460.921	1802.5
460.925	957
460.929	727.2
460.934	683
460.938	680.3
460.942	678
460.946	672.5
460.951	664
460.955	650.8
460.959	646.3
460.964	646.3
460.968	654.2
460.972	655.4
460.977	651
460.981	640.3
460.985	633.1
460.99	629.4
460.994	632.4
460.998	638.7
461.003	645.1
461.007	646.5
461.011	645.3
461.016	638.5
461.02	630.8
461.024	623.4
461.028	621.8
461.033	632
461.037	662.9
461.041	711.4
461.046	722.9
461.05	691.3
461.054	647.1
461.059	631.7
461.063	641.4
461.067	652.5
461.072	654.2
461.076	644.1
461.08	626.6
461.085	622.1
461.089	621.3
461.093	622
461.097	621.6
461.102	616.8
461.106	614.9
461.11	615.6
461.115	615.5
461.119	614.7
461.123	614.2
461.128	614.3
461.132	614
461.136	614.4
461.141	616
461.145	616
461.149	615.1
461.154	614.5
461.158	615.7
461.162	620
461.166	622.1
461.171	621.8
461.175	618.4
461.179	614.8
461.184	615.5
461.188	613.1
461.192	614.1
461.197	615
461.201	615
461.205	617.5
461.21	627.8
461.214	653.1
461.218	681.6
461.223	697.5
461.227	696
461.231	720.3
461.235	871.9
461.24	1321.5
461.244	2249.6
461.248	3200.6
461.253	3278.4
461.257	2375.4
461.261	1316.7
461.266	809.2
461.27	666.2
461.274	632.2
461.279	621.9
461.283	619.9
461.287	617.2
461.292	620.6
461.296	625
461.3	643
461.304	661.2
461.309	670.5
461.313	665.1
461.317	659.5
461.322	660.7
461.326	666.8
461.33	655.3
461.335	637.3
461.339	625.1
461.343	615.6
461.348	613.7
461.352	612.8
461.356	615.8
461.36	617.2
461.365	620.1
461.369	620.5
461.373	617.9
461.378	616.3
461.382	613.3
461.386	613.7
461.391	622.6
461.395	655.4
461.399	711.9
461.404	756.3
461.408	737
461.412	682.7
461.417	637.3
461.421	617.8
461.425	615.3
461.429	612.4
461.434	611.5
461.438	611.2
461.442	613.7
461.447	613.8
461.451	616.1
461.455	614
461.46	614.5
461.464	609.9
461.468	609.4
461.473	610.2
461.477	612.6
461.481	614.4
461.485	616.4
461.49	616
461.494	613.4
461.498	613.6
461.503	613.8
461.507	612.7
461.511	611.7
461.516	610.2
461.52	611.8
461.524	616
461.529	623.8
461.533	629.8
461.537	627.2
461.541	620.8
461.546	616
461.55	622.8
461.554	645.9
461.559	672.6
461.563	679.9
461.567	658.7
461.572	633.2
461.576	618.3
461.58	612.8
461.585	610.3
461.589	609.4
461.593	609.2
461.597	610.8
461.602	612.8
461.606	613.5
461.61	615.1
461.615	617.3
461.619	616
461.623	613.6
461.628	612.1
461.632	613.4
461.636	612.7
461.641	615.7
461.645	612.7
461.649	611.8
461.653	612.2
461.658	611.6
461.662	612.1
461.666	613.5
461.671	614.5
461.675	613.7
461.679	609.9
461.684	611.1
461.688	610.8
461.692	611.1
461.697	609.3
461.701	610.4
461.705	612.9
461.709	621.3
461.714	653.4
461.718	695.5
461.722	719.4
461.727	704.5
461.731	671.6
461.735	637
461.74	625.6
461.744	629.7
461.748	627.4
461.753	624.8
461.757	618.3
461.761	613.3
461.765	611.7
461.77	611.2
461.774	612.3
461.778	612.2
461.783	612
461.787	610.9
461.791	610.8
461.796	612
461.8	612.7
461.804	613.4
461.809	616
461.813	619.6
461.817	618.8
461.821	616.9
461.826	614.3
461.83	611.8
461.834	612.1
461.839	613.2
461.843	614.6
461.847	614.6
461.852	614.9
461.856	619.2
461.86	629.2
461.864	639.6
461.869	639.8
461.873	629.8
461.877	620.9
461.882	616.2
461.886	617.6
461.89	618.4
461.895	616.6
461.899	616.2
461.903	612.9
461.908	613.2
461.912	614.9
461.916	617.3
461.92	619.2
461.925	614.3
461.929	615.1
461.933	615.9
461.938	617.1
461.942	620.4
461.946	624
461.951	632
461.955	663.8
461.959	847.3
461.963	1435.8
461.968	2310.9
461.972	2818.3
461.976	2497.2
461.981	1645.9
461.985	921.6
461.989	681.4
461.994	631.4
461.998	620.5
462.002	617
462.007	615.8
462.011	613.7
462.015	613
462.019	612.5
462.024	612.7
462.028	612.6
462.032	612.9
462.037	612.3
462.041	612.6
462.045	612.7
462.05	613.1
462.054	616.2
462.058	618.9
462.062	623
462.067	622.8
462.071	623.9
462.075	622.3
462.08	622.5
462.084	628.3
462.088	634.4
462.093	637.5
462.097	633.5
462.101	622.5
462.105	613.9
462.11	610.4
462.114	610.2
462.118	610.3
462.123	609.9
462.127	610.6
462.131	609.9
462.136	612.8
462.14	611.5
462.144	612.2
462.148	612
462.153	610.5
462.157	609.9
462.161	609.4
462.166	608.5
462.17	609.4
462.174	609.9
462.179	608.5
462.183	610.3
462.187	611.8
462.191	618.7
462.196	624.8
462.2	631.1
462.204	629.9
462.209	623.4
462.213	618.3
462.217	619.8
462.222	644
462.226	694.5
462.23	737.6
462.234	733.9
462.239	697.8
462.243	648.4
462.247	621.3
462.252	614.7
462.256	611.9
462.26	613.7
462.265	615.4
462.269	628.5
462.273	666.3
462.277	737
462.282	810.4
462.286	842.8
462.29	822.4
462.295	764.7
462.299	713.1
462.303	667.5
462.308	632.3
462.312	616.4
462.316	613.4
462.32	615
462.325	618
462.329	625.4
462.333	632.8
462.338	632.2
462.342	632.7
462.346	633.4
462.351	649.3
462.355	668.6
462.359	678.6
462.363	669.5
462.368	643.2
462.372	622.8
462.376	613.3
462.381	610.5
462.385	610.2
462.389	610.8
462.394	610.1
462.398	609.9
462.402	609.5
462.406	610
462.411	610.1
462.415	612.9
462.419	624.8
462.424	649.2
462.428	685.4
462.432	707.8
462.437	698.9
462.441	678.1
462.445	655.6
462.449	650.3
462.454	641.4
462.458	629.2
462.462	618.6
462.467	615.3
462.471	615.4
462.475	613.9
462.48	613.8
462.484	612
462.488	614.6
462.492	616.9
462.497	619.5
462.501	620.4
462.505	625.2
462.51	632.6
462.514	641.2
462.518	649.3
462.522	647.1
462.527	640.6
462.531	635.4
462.535	659.4
462.54	747.9
462.544	903.9
462.548	1019.1
462.553	1024.7
462.557	932.5
462.561	789.3
462.565	669
462.57	626
462.574	616.3
462.578	614.5
462.583	615.3
462.587	617.4
462.591	621.3
462.596	621.9
462.6	620.6
462.604	622.2
462.608	628.7
462.613	635.1
462.617	634.7
462.621	627.6
462.626	619.7
462.63	613.5
462.634	612.8
462.638	613.1
462.643	616.1
462.647	627.1
462.651	646.2
462.656	663.4
462.66	665.8
462.664	654.7
462.669	636.6
462.673	622.3
462.677	616
462.681	612.7
462.686	610.8
462.69	612.7
462.694	620.4
462.699	640.7
462.703	663.8
462.707	678.7
462.711	680.7
462.716	664.1
462.72	645.1
462.724	633.9
462.729	626.7
462.733	626.1
462.737	637.7
462.742	670.8
462.746	762.1
462.75	1008.7
462.754	1313.2
462.759	1450.6
462.763	1319.6
462.767	1022.1
462.772	737.4
462.776	666.7
462.78	676.7
462.784	702.5
462.789	731.4
462.793	738.1
462.797	717.6
462.802	678
462.806	636.4
462.81	620.6
462.815	613.7
462.819	616
462.823	620.5
462.827	638.8
462.832	680.3
462.836	730.3
462.84	750.8
462.845	731.8
462.849	685.2
462.853	637.3
462.857	618
462.862	613.3
462.866	613.5
462.87	613.2
462.875	615.8
462.879	616.8
462.883	625.5
462.888	613.148
462.893	613.549
462.897	612.751
462.901	614.352
462.906	618.554
462.91	628.456
462.914	638.857
462.919	637.559
462.923	628.26
462.927	633.562
462.932	646.164
462.936	661.965
462.94	685.867
462.945	699.168
462.949	706.07
462.953	750.072
462.958	757.673
462.962	689.475
462.966	645.777
462.971	659.578
462.975	713.98
462.979	742.682
462.984	699.183
462.988	648.185
462.992	622.286
462.997	613.788
463.001	612.99
463.006	612.691
463.01	610.993
463.014	609.294
463.019	609.396
463.023	609.798
463.027	611.099
463.032	611.401
463.036	613.103
463.04	611.804
463.045	609.906
463.049	611.207
463.053	609.509
463.058	609.911
463.062	608.812
463.066	609.214
463.071	611.016
463.075	611.117
463.079	616.619
463.084	622.72
463.088	621.222
463.092	614.624
463.097	610.525
463.101	612.127
463.105	614.828
463.11	616.33
463.114	620.532
463.118	636.433
463.123	648.235
463.127	645.837
463.132	630.938
463.136	619.34
463.14	614.441
463.145	610.343
463.149	610.245
463.153	608.346
463.158	612.048
463.162	611.649
463.166	614.951
463.171	621.353
463.175	625.754
463.179	630.156
463.184	629.458
463.188	632.159
463.192	632.861
463.197	641.462
463.201	638.864
463.205	621.766
463.21	612.067
463.214	611.069
463.218	612.271
463.223	609.772
463.227	609.074
463.231	610.875
463.236	612.577
463.24	611.879
463.244	610.28
463.249	611.282
463.253	616.083
463.257	617.185
463.262	618.987
463.266	613.888
463.27	613.39
463.275	611.592
463.279	612.593
463.284	611.695
463.288	612.296
463.292	613.098
463.297	612
463.301	611.801
463.305	611.503
463.31	612.005
463.314	611.706
463.318	612.308
463.323	611.609
463.327	613.611
463.331	621.413
463.336	638.514
463.34	655.516
463.344	651.318
463.349	631.619
463.353	622.121
463.357	628.822
463.362	637.824
463.366	632.826
463.37	619.827
463.375	615.129
463.379	614.63
463.383	616.832
463.388	618.234
463.392	623.835
463.396	638.037
463.401	655.539
463.405	723.54
463.409	1004.34
463.414	1814.14
463.418	2785.55
463.422	2533.35
463.427	1389.85
463.431	806.05
463.435	671.452
463.44	678.853
463.444	755.155
463.448	814.456
463.453	694.958
463.457	730.86
463.461	724.461
463.466	768.963
463.47	784.865
463.475	716.066
463.479	662.368
463.483	672.169
463.488	692.771
463.492	666.173
463.496	625.374
463.501	615.176
463.505	618.577
463.509	625.679
463.514	625.881
463.518	620.382
463.522	617.584
463.527	621.986
463.531	623.987
463.535	632.089
463.54	661.89
463.544	694.292
463.548	679.794
463.553	635.995
463.557	618.397
463.561	612.698
463.566	610.8
463.57	610.602
463.574	611.803
463.579	611.205
463.583	612.707
463.587	617.208
463.592	628.31
463.596	653.711
463.6	669.213
463.605	653.215
463.609	627.516
463.613	614.718
463.618	614.52
463.622	614.121
463.626	614.323
463.631	617.024
463.635	625.726
463.639	647.528
463.644	693.429
463.648	786.231
463.652	1191.43
463.657	2431.73
463.661	3197.84
463.665	2087.94
463.67	964.139
463.674	703.74
463.678	660.742
463.683	633.344
463.687	621.546
463.691	617.947
463.696	617.049
463.7	614.95
463.704	615.752
463.709	620.953
463.713	637.055
463.717	692.457
463.722	790.659
463.726	835.66
463.73	794.162
463.735	721.163
463.739	655.765
463.743	623.366
463.748	615.868
463.752	616.17
463.757	627.571
463.761	646.673
463.765	660.375
463.77	664.476
463.774	655.378
463.778	637.979
463.783	618.781
463.787	613.383
463.791	613.484
463.796	611.286
463.8	611.388
463.804	609.889
463.809	611.491
463.813	611.792
463.817	613.194
463.822	624.596
463.826	636.697
463.83	632.099
463.835	620.8
463.839	612.202
463.843	611.404
463.848	611.705
463.852	612.107
463.856	612.809
463.861	614.61
463.865	618.812
463.869	629.814
463.874	636.415
463.878	629.417
463.882	626.718
463.887	627.22
463.891	627.522
463.895	622.723
463.9	616.625
463.904	617.126
463.908	614.728
463.913	616.03
463.917	616.731
463.921	615.733
463.926	613.535
463.93	611.936
463.934	613.438
463.939	613.139
463.943	614.041
463.947	613.643
463.952	617.644
463.956	634.946
463.96	691.048
463.965	773.049
463.969	769.151
463.973	685.152
463.978	630.954
463.982	616.756
463.986	615.057
463.991	614.459
463.995	620.661
463.999	630.862
464.004	638.764
464.008	636.565
464.012	639.667
464.017	632.568
464.021	624.27
464.025	619.172
464.03	618.373
464.034	615.475
464.038	614.177
464.043	614.078
464.047	614.58
464.051	613.682
464.056	616.383
464.06	614.385
464.064	615.286
464.069	616.088
464.073	617.99
464.077	619.591
464.082	622.093
464.086	632.894
464.09	669.296
464.095	719.998
464.099	743.899
464.103	754.201
464.108	835.903
464.112	1107.9
464.116	1300.71
464.121	1104.71
464.125	799.909
464.129	661.911
464.134	630.712
464.138	625.214
464.142	630.916
464.147	654.917
464.151	675.419
464.155	657.02
464.16	634.222
464.164	630.324
464.168	641.625
464.173	672.927
464.177	783.328
464.181	1238.13
464.186	2808.33
464.19	5487.13
464.194	6064.54
464.199	3499.94
464.203	1435.44
464.207	791.94
464.212	661.941
464.216	634.443
464.22	626.545
464.225	633.846
464.229	650.548
464.233	666.25
464.238	679.851
464.242	751.653
464.246	1013.95
464.251	1302.86
464.255	1232.66
464.259	1015.56
464.264	921.261
464.268	784.363
464.272	668.464
464.277	646.366
464.281	666.967
464.285	673.669
464.29	653.97
464.294	640.272
464.298	640.574
464.303	653.575
464.307	693.277
464.311	714.279
464.316	676.88
464.32	636.882
464.324	619.883
464.329	613.485
464.333	610.587
464.337	612.088
464.342	611.69
464.346	612.892
464.35	612.693
464.355	615.695
464.359	615.896
464.363	616.998
464.368	615.8
464.372	615.301
464.376	617.503
464.38	620.605
464.385	619.906
464.389	616.708
464.393	613.809
464.398	612.511
464.402	614.313
464.406	616.114
464.411	627.216
464.415	657.117
464.419	749.919
464.424	953.921
464.428	1040.12
464.432	859.324
464.437	684.026
464.441	630.527
464.445	624.629
464.45	639.23
464.454	672.032
464.458	684.934
464.463	653.435
464.467	625.637
464.471	617.339
464.476	618.34
464.48	617.842
464.484	621.143
464.489	632.445
464.493	648.647
464.497	644.148
464.502	625.25
464.506	616.852
464.51	616.553
464.515	613.355
464.519	614.056
464.523	617.958
464.528	632.86
464.532	655.161
464.536	733.063
464.541	987.565
464.545	1601.07
464.549	2114.57
464.554	1789.37
464.558	1074.17
464.562	737.473
464.567	657.574
464.571	650.876
464.575	640.878
464.58	626.779
464.584	616.581
464.588	612.582
464.593	612.984
464.597	612.985
464.601	614.687
464.606	620.289
464.61	628.991
464.614	629.192
464.619	623.194
464.623	614.895
464.627	613.497
464.632	612.698
464.636	616.2
464.64	625.402
464.645	643.003
464.649	646.105
464.653	628.207
464.658	616.808
464.662	611.81
464.666	611.712
464.671	611.513
464.675	618.315
464.679	643.116
464.683	671.118
464.688	654.82
464.692	621.221
464.696	612.123
464.701	610.924
464.705	610.626
464.709	611.428
464.714	612.329
464.718	614.831
464.722	628.633
464.727	662.334
464.731	695.336
464.735	679.337
464.74	642.139
464.744	630.741
464.748	623.042
464.753	614.944
464.757	612.045
464.761	613.047
464.766	611.649
464.77	612.85
464.774	614.352
464.779	613.854
464.783	612.255
464.787	613.557
464.792	616.158
464.796	616.06
464.8	612.662
464.805	613.563
464.809	615.065
464.813	612.867
464.818	615.168
464.822	612.57
464.826	612.771
464.831	611.873
464.835	612.975
464.839	617.576
464.844	616.578
464.848	612.779
464.852	613.081
464.857	611.083
464.861	611.884
464.865	614.486
464.869	626.088
464.874	651.889
464.878	687.791
464.882	686.792
464.887	651.294
464.891	627.096
464.895	617.397
464.9	614.999
464.904	613.001
464.908	614.702
464.913	619.904
464.917	638.405
464.921	688.307
464.926	743.509
464.93	723.31
464.934	659.712
464.939	628.813
464.943	626.315
464.947	624.017
464.952	618.718
464.956	613.02
464.96	614.422
464.965	618.623
464.969	620.425
464.973	619.326
464.978	615.228
464.982	618.63
464.986	616.831
464.991	617.833
464.995	620.734
464.999	615.636
465.004	612.338
465.008	611.839
465.012	614.841
465.016	623.143
465.021	658.844
465.025	760.046
465.029	808.647
465.034	714.349
465.038	631.551
465.042	615.552
465.047	613.354
465.051	614.756
465.055	617.957
465.06	622.159
465.064	624.76
465.068	631.662
465.073	640.464
465.077	630.665
465.081	621.367
465.086	622.269
465.09	621.27
465.094	615.772
465.099	612.773
465.103	616.475
465.107	630.877
465.112	673.878
465.116	726.28
465.12	719.182
465.125	659.583
465.129	625.385
465.133	616.686
465.138	615.788
465.142	624.19
465.146	665.791
465.15	737.393
465.155	741.095
465.159	670.296
465.163	623.498
465.168	612.799
465.172	611.401
465.176	613.003
465.181	618.204
465.185	670.606
465.189	612.908
465.194	611.209
465.198	611.411
465.202	611.912
465.207	612.714
465.211	612.915
465.215	618.217
465.22	626.619
465.224	629.52
465.228	623.422
465.233	625.424
465.237	637.525
465.241	692.027
465.246	779.628
465.25	793.13
465.254	710.932
465.258	668.433
465.263	697.535
465.267	749.237
465.271	789.338
465.276	784.04
465.28	706.841
465.284	648.243
465.289	638.645
465.293	641.646
465.297	629.648
465.302	621.45
465.306	615.551
465.31	617.853
465.315	617.954
465.319	621.356
465.323	620.458
465.328	618.959
465.332	624.261
465.336	638.262
465.341	641.264
465.345	632.666
465.349	621.667
465.354	618.269
465.358	621.071
465.362	628.372
465.366	634.674
465.371	655.175
465.375	684.177
465.379	666.479
465.384	632.58
465.388	622.182
465.392	617.883
465.397	617.885
465.401	619.987
465.405	618.888
465.41	620.29
465.414	621.092
465.418	621.093
465.423	620.695
465.427	622.896
465.431	623.998
465.436	627.1
465.44	628.201
465.444	626.803
465.449	626.305
465.453	626.006
465.457	624.108
465.461	622.609
465.466	622.211
465.47	623.013
465.474	625.014
465.479	632.216
465.483	640.818
465.487	638.819
465.492	628.321
465.496	625.122
465.5	623.424
465.505	624.926
465.509	625.427
465.513	627.429
465.518	630.53
465.522	637.132
465.526	646.534
465.531	654.135
465.535	657.537
465.539	652.639
465.544	651.14
465.548	649.642
465.552	641.643
465.556	634.845
465.561	634.847
465.565	644.148
465.569	662.65
465.574	674.552
465.578	662.853
465.582	651.455
465.587	649.956
465.591	665.258
465.595	687.56
465.6	680.861
465.604	661.663
465.608	652.065
465.613	650.766
465.617	653.468
465.621	657.569
465.626	668.171
465.63	712.273
465.634	786.374
465.638	818.776
465.643	801.978
465.647	762.579
465.651	707.381
465.656	692.282
465.66	728.884
465.664	899.686
465.669	1568.79
465.673	2950.99
465.677	3456.59
465.682	2262.29
465.686	1163.39
465.69	813.395
465.695	748.097
465.699	771.398
465.703	848
465.708	1077.3
465.712	2110.6
465.716	7908
465.72	21766.5
465.725	25290.4
465.729	11601
465.733	2744.81
465.738	1111.21
465.742	844.515
465.746	764.116
465.751	732.818
465.755	736.52
465.759	737.421
465.764	716.923
465.768	688.124
465.772	677.826
465.777	671.328
465.781	669.129
465.785	669.731
465.79	668.333
465.794	667.034
465.798	662.436
465.802	660.337
465.807	659.439
465.811	657.541
465.815	659.642
465.82	658.244
465.824	661.146
465.828	662.047
465.833	661.349
465.837	664.851
465.841	672.152
465.846	678.954
465.85	680.455
465.854	675.457
465.859	678.559
465.863	681.36
465.867	687.762
465.871	696.263
465.876	698.365
465.88	707.767
465.884	726.468
465.889	757.97
465.893	811.671
465.897	988.073
465.902	1592.57
465.906	4156.68
465.91	14157.5
465.915	37408.9
465.919	52104.3
465.923	42527
465.928	17850.1
465.932	4876.69
465.936	1614.29
465.94	950.189
465.945	799.791
465.949	745.092
465.953	718.594
465.958	707.296
465.962	698.797
465.966	699.599
465.971	702.401
465.975	702.602
465.979	697.504
465.984	679.505
465.988	661.107
465.992	653.409
465.997	644.21
466.001	642.812
466.005	637.513
466.009	635.015
466.014	632.817
466.018	630.118
466.022	628.72
466.027	630.522
466.031	629.823
466.035	632.025
466.04	641.427
466.044	693.628
466.048	905.73
466.053	1375.93
466.057	1564.03
466.061	1154.73
466.066	775.736
466.07	665.638
466.074	644.839
466.078	631.941
466.083	624.043
466.087	621.044
466.091	620.046
466.096	619.948
466.1	619.349
466.104	620.751
466.109	624.252
466.113	627.154
466.117	647.856
466.122	727.257
466.126	893.659
466.13	978.461
466.134	855.462
466.139	703.464
466.143	651.265
466.147	635.067
466.152	628.269
466.156	621.87
466.16	617.272
466.165	616.974
466.169	616.675
466.173	617.677
466.178	619.278
466.182	629.08
466.186	665.782
466.191	705.883
466.195	707.385
466.199	686.686
466.203	659.788
466.208	640.59
466.212	640.791
466.216	657.793
466.221	697.795
466.225	728.496
466.229	718.498
466.234	696.399
466.238	668.501
466.242	643.503
466.247	625.404
466.251	618.506
466.255	616.107
466.259	614.609
466.264	615.411
466.268	614.412
466.272	615.114
466.277	618.316
466.281	621.717
466.285	621.019
466.29	619.221
466.294	617.222
466.298	615.224
466.303	616.925
466.307	625.727
466.311	650.029
466.315	664.73
466.32	646.232
466.324	622.533
466.328	614.435
466.333	613.937
466.337	613.738
466.341	619.24
466.346	632.842
466.35	637.443
466.354	628.645
466.359	617.346
466.363	612.548
466.367	610.85
466.371	612.651
466.376	611.753
466.38	611.954
466.384	613.456
466.389	615.158
466.393	616.259
466.397	614.961
466.402	614.862
466.406	616.964
466.41	629.666
466.415	651.967
466.419	668.169
466.423	661.771
466.427	643.772
466.432	638.274
466.436	635.975
466.44	622.177
466.445	615.579
466.449	613.58
466.453	612.882
466.458	614.284
466.462	614.385
466.466	615.087
466.471	619.789
466.475	627.69
466.479	648.492
466.483	666.693
466.488	660.495
466.492	635.896
466.496	631.598
466.501	648.8
466.505	671.702
466.509	678.603
466.514	653.605
466.518	628.806
466.522	615.908
466.527	614.609
466.531	612.411
466.535	614.813
466.539	613.314
466.544	613.216
466.548	616.018
466.552	624.419
466.557	638.721
466.561	651.823
466.565	642.224
466.57	627.826
466.574	617.927
466.578	613.729
466.583	611.031
466.587	611.632
466.591	610.934
466.595	612.435
466.6	610.537
466.604	610.639
466.608	611.74
466.613	612.142
466.617	612.344
466.621	612.945
466.626	612.747
466.63	612.248
466.634	613.55
466.638	615.452
466.643	618.153
466.647	620.355
466.651	617.056
466.656	619.258
466.66	615.56
466.664	614.361
466.669	613.963
466.673	617.165
466.677	625.566
466.682	650.968
466.686	676.669
466.69	659.671
466.694	627.873
466.699	617.474
466.703	617.476
466.707	620.177
466.712	619.779
466.716	618.181
466.72	617.482
466.725	619.584
466.729	621.186
466.733	629.887
466.737	655.689
466.742	721.49
466.746	799.792
466.75	792.494
466.755	708.095
466.759	648.097
466.763	646.999
466.768	722.1
466.772	905.602
466.776	1084.8
466.781	998.605
466.785	776.307
466.789	658.008
466.793	629.31
466.798	621.811
466.802	617.513
466.806	616.815
466.811	624.816
466.815	657.618
466.819	712.82
466.824	730.121
466.828	679.623
466.832	631.224
466.836	616.826
466.841	614.728
466.845	614.629
466.849	616.231
466.854	622.433
466.858	623.134
466.862	620.536
466.867	615.037
466.871	614.439
466.875	617.141
466.879	616.842
466.884	615.944
466.888	614.945
466.892	611.847
466.897	611.749
466.901	612.15
466.905	611.452
466.91	611.554
466.914	611.155
466.918	610.857
466.922	611.758
466.927	612.16
466.931	611.562
466.935	612.463
466.94	612.865
466.944	610.667
466.948	611.768
466.953	612.37
466.957	618.272
466.961	636.473
466.965	667.675
466.97	682.476
466.974	684.678
466.978	697.479
466.983	683.581
466.987	648.283
466.991	625.284
466.996	618.586
467	616.988
