#Acq. time (s)=	0.07
#Accumulations=	20
#Range (nm)=	401...414
#Windows=	2
#Auto scanning=	Off
#Autofocus=	Off
#AutoExposure=	Off
#Spike filter=	Off
#Delay time (s)=	0
#Binning=	1
#Readout mode=	Signal
#DeNoise=	Off
#ICS correction=	Off
#Dark correction=	Off
#Inst. Process=	Off
#Detector temperature (°C)=	-75.19
#Instrument=	OSD
#Detector=	Synapse
#Grating=	2400
#Front entrance slit=	20
#Exit mirror=	Side
#Full time(mm:ss)=	4:00
#Project=	
#Sample=	
#Site=	
#Title=	W_Ar_DC_3Pa_1493W_439V_3_4A
#Remark=	
#Date=	10.12.2019 10:15
#Acquired=	10.12.2019 10:15:40
401.001	665.5
401.005	645
401.01	638.5
401.015	638.6
401.019	640.8
401.024	641.1
401.029	657
401.033	690.4
401.038	702.2
401.043	672.2
401.047	670.5
401.052	755.8
401.056	989.2
401.061	1357.9
401.066	1465.4
401.07	1094.3
401.075	762.7
401.08	654.1
401.084	630.5
401.089	625.3
401.094	624.2
401.098	628
401.103	642.3
401.108	667.4
401.112	697.5
401.117	692.6
401.121	659.9
401.126	645.7
401.131	660.6
401.135	667.5
401.14	647.2
401.145	628.1
401.149	621.9
401.154	619.6
401.159	621.1
401.163	620.4
401.168	626.2
401.173	629.7
401.177	630.1
401.182	623.1
401.186	620.5
401.191	625.1
401.196	635.7
401.2	646
401.205	641.9
401.21	626.7
401.214	622.1
401.219	620.1
401.224	626.4
401.228	637.1
401.233	657.5
401.237	676.1
401.242	735.9
401.247	832.6
401.251	860.6
401.256	767.2
401.261	678.7
401.265	648.9
401.27	664.2
401.275	705.1
401.279	709.9
401.284	662.6
401.289	634
401.293	629.5
401.298	642.8
401.302	678
401.307	752.6
401.312	1002.9
401.316	1670.6
401.321	1927
401.326	1257.7
401.33	758.2
401.335	641.9
401.34	624.2
401.344	623.3
401.349	624.4
401.353	621.2
401.358	619.8
401.363	620.3
401.367	626
401.372	630.7
401.377	626
401.381	623.7
401.386	629.3
401.391	649.5
401.395	684.3
401.4	694.5
401.405	657.6
401.409	631.6
401.414	630.5
401.418	654.8
401.423	721.3
401.428	769.8
401.432	732.3
401.437	709.6
401.442	852.1
401.446	1549.8
401.451	3553.7
401.456	5142.2
401.46	3642.1
401.465	1508.8
401.469	789.5
401.474	655.8
401.479	633.3
401.483	629.1
401.488	627.7
401.493	623.9
401.497	622.2
401.502	619.7
401.507	617.8
401.511	618.9
401.516	618.6
401.52	620.9
401.525	627.5
401.53	643.3
401.534	697.8
401.539	815.8
401.544	1020.6
401.548	909.6
401.553	715.4
401.558	654.3
401.562	658.7
401.567	674.8
401.572	707.8
401.576	851.8
401.581	1278.1
401.585	1704.5
401.59	1449.7
401.595	909.8
401.599	675.2
401.604	627.5
401.609	618.4
401.613	617.9
401.618	628.5
401.622	657.2
401.627	664.5
401.632	640.4
401.636	618.9
401.641	614.5
401.646	614.9
401.65	613.7
401.655	618.2
401.66	636.9
401.664	676
401.669	702.2
401.674	666.6
401.678	637.7
401.683	641.5
401.687	662.1
401.692	659.8
401.697	631.9
401.701	618.9
401.706	615
401.711	614.5
401.715	611.6
401.72	611.4
401.725	611.6
401.729	610.8
401.734	611.8
401.738	611.1
401.743	611.8
401.748	611.6
401.752	615
401.757	624.9
401.762	643.6
401.766	647.8
401.771	630.6
401.776	616.2
401.78	613.6
401.785	618.5
401.789	628.5
401.794	633.1
401.799	628.1
401.803	633.1
401.808	640.8
401.813	633.1
401.817	623.6
401.822	621.8
401.827	628.1
401.831	634
401.836	659.9
401.84	767.1
401.845	1234.6
401.85	2842.9
401.854	5116.3
401.859	4873.2
401.864	2416.1
401.868	1031.7
401.873	695.6
401.878	634
401.882	622.7
401.887	615.2
401.891	614.9
401.896	614.9
401.901	615
401.905	621.1
401.91	643.2
401.915	696.8
401.919	704.9
401.924	651.2
401.928	618.5
401.933	610.1
401.938	611.5
401.942	611.3
401.947	616
401.952	623.5
401.956	622.9
401.961	615.4
401.966	614.4
401.97	610.4
401.975	609.2
401.979	608.9
401.984	608.7
401.989	612.2
401.993	618.9
401.998	617.4
402.003	613.2
402.007	615.1
402.012	615.9
402.017	613.4
402.021	611.1
402.026	610.6
402.03	609
402.035	607.9
402.04	606.6
402.044	607.4
402.049	605.6
402.054	606.9
402.058	606.7
402.063	607.7
402.068	608.3
402.072	608
402.077	609.4
402.081	607.4
402.086	608.1
402.091	609
402.095	615.1
402.1	624.3
402.105	644
402.109	648.2
402.114	627.2
402.118	612.4
402.123	612.6
402.128	623.3
402.132	669.1
402.137	841
402.142	1151.3
402.146	1246.8
402.151	965.5
402.156	704.3
402.16	624.6
402.165	611.1
402.169	609.3
402.174	608.1
402.179	608.4
402.183	611.1
402.188	608.6
402.193	608.4
402.197	610.1
402.202	616.3
402.206	642.2
402.211	709.7
402.216	756.6
402.22	698
402.225	631.6
402.23	611.3
402.234	607.7
402.239	606.8
402.244	606.3
402.248	605.2
402.253	606.3
402.257	604.8
402.262	607.1
402.267	608.6
402.271	615.4
402.276	633.6
402.281	651
402.285	647.3
402.29	637.9
402.294	639.2
402.299	626.7
402.304	613.5
402.308	607.9
402.313	606
402.318	605.6
402.322	606.7
402.327	605
402.332	605.4
402.336	605.4
402.341	608.5
402.345	611.7
402.35	616.1
402.355	617.7
402.359	612.3
402.364	612.3
402.369	607.5
402.373	607.3
402.378	606.4
402.382	605.2
402.387	607.5
402.392	607.3
402.396	613.7
402.401	625.7
402.406	637.4
402.41	625.2
402.415	614
402.419	607.5
402.424	609.6
402.429	612.4
402.433	619.2
402.438	621.5
402.443	643.1
402.447	715.1
402.452	768.2
402.457	716.3
402.461	641.6
402.466	619.8
402.47	611.8
402.475	608.8
402.48	608.8
402.484	611.4
402.489	617.1
402.494	615.2
402.498	610.5
402.503	608.4
402.507	609.2
402.512	612.8
402.517	622.9
402.521	631.2
402.526	635.4
402.531	663.2
402.535	679.8
402.54	654.4
402.544	623.4
402.549	614.2
402.554	612.3
402.558	609.5
402.563	608.5
402.568	608.5
402.572	607.6
402.577	607.3
402.582	607.8
402.586	607.8
402.591	608.1
402.595	607.9
402.6	608
402.605	610.6
402.609	619.4
402.614	629
402.619	628.3
402.623	618.5
402.628	611.4
402.632	615.1
402.637	620.8
402.642	619.8
402.646	611.1
402.651	607.7
402.656	607.9
402.66	608.9
402.665	607.6
402.669	609.2
402.674	612.1
402.679	621.3
402.683	637.1
402.688	633.1
402.693	619.5
402.697	610.5
402.702	613.2
402.706	618.9
402.711	622.9
402.716	618.1
402.72	612.3
402.725	610.8
402.73	611
402.734	610.8
402.739	613.3
402.743	617.3
402.748	618.6
402.753	617.6
402.757	615.4
402.762	616
402.767	616.9
402.771	616.4
402.776	618.1
402.781	623.2
402.785	632.6
402.79	648.9
402.794	725.4
402.799	1099.4
402.804	2533.8
402.808	4907.6
402.813	5003.2
402.818	2584
402.822	1079.5
402.827	771.5
402.831	821
402.836	818.5
402.841	705
402.845	634.2
402.85	618.9
402.855	615.4
402.859	617.1
402.864	616.2
402.868	617.5
402.873	619.8
402.878	629.2
402.882	660.3
402.887	755.3
402.892	843.3
402.896	779.2
402.901	667
402.905	624.4
402.91	625.9
402.915	672.5
402.919	806.7
402.924	921.4
402.929	855.5
402.933	724.4
402.938	638.8
402.942	614.4
402.947	608.9
402.952	611.5
402.956	614
402.961	612.3
402.966	608.5
402.97	608.2
402.975	606.7
402.979	607.4
402.984	606.4
402.989	606.8
402.993	606.7
402.998	607.9
403.003	609.4
403.007	607.7
403.012	608.7
403.016	611.2
403.021	611.8
403.026	608.6
403.03	610.2
403.035	609.3
403.04	608.7
403.044	606.9
403.049	608.4
403.053	611.1
403.058	612.3
403.063	635.7
403.067	696.2
403.072	721.3
403.077	670.1
403.081	628.9
403.086	626
403.09	672.4
403.095	787.4
403.1	844.4
403.104	748.3
403.109	644.4
403.114	614.7
403.118	609.4
403.123	611.1
403.127	616.1
403.132	614.1
403.137	612.5
403.141	608.9
403.146	608.3
403.151	611
403.155	622.6
403.16	655
403.164	714
403.169	761.2
403.174	712.9
403.178	638.7
403.183	622.3
403.188	648.3
403.192	686.3
403.197	673.2
403.201	640.5
403.206	629.9
403.211	628.1
403.215	626
403.22	640.5
403.224	654
403.229	647.7
403.234	631.5
403.238	623.9
403.243	620.6
403.248	619.5
403.252	617.1
403.257	613.9
403.261	611.5
403.266	611.1
403.271	617.6
403.275	630.2
403.28	634.2
403.285	618.9
403.289	613
403.294	616.2
403.298	637
403.303	737.7
403.308	1133
403.312	1476.7
403.317	1160.1
403.322	752.2
403.326	675
403.331	677
403.335	654.9
403.34	628
403.345	616.1
403.349	610.2
403.354	608.3
403.359	608
403.363	606
403.368	606.2
403.372	606.2
403.377	607
403.382	606.9
403.386	606.5
403.391	609.8
403.395	616.7
403.4	640.3
403.405	668.6
403.409	656.7
403.414	625.9
403.419	612.1
403.423	607.1
403.428	606.8
403.432	608.2
403.437	608.9
403.442	609.9
403.446	610.5
403.451	615.9
403.456	638.4
403.46	727.5
403.465	867.4
403.469	992.2
403.474	1245.9
403.479	1276.2
403.483	892.7
403.488	658.1
403.493	617.8
403.497	611.1
403.502	611.8
403.506	612.4
403.511	614.8
403.516	624.7
403.52	643.6
403.525	646
403.529	628.8
403.534	611.3
403.539	608.6
403.543	611.6
403.548	625.3
403.553	641
403.557	634.5
403.562	620
403.566	616.3
403.571	621.7
403.576	625.5
403.58	626.6
403.585	625.8
403.59	618.4
403.594	616.8
403.599	631.4
403.603	710.5
403.608	1038
403.613	1770.1
403.617	2076.4
403.622	1427.4
403.626	822.8
403.631	649
403.636	620.1
403.64	613.6
403.645	611.1
403.65	611.1
403.654	612.8
403.659	612
403.663	610.4
403.668	607.5
403.673	606.9
403.677	609.5
403.682	609.6
403.687	609.5
403.691	607.9
403.696	611.9
403.7	614.4
403.705	613.9
403.71	612.5
403.714	611.9
403.719	609.6
403.723	607.3
403.728	607.6
403.733	608.5
403.737	608.4
403.742	609.3
403.747	610.6
403.751	612.9
403.756	612.5
403.76	611.7
403.765	609.3
403.77	609.2
403.774	608.2
403.779	608.3
403.784	608.3
403.788	608.1
403.793	608.8
403.797	613.5
403.802	637.1
403.807	716.5
403.811	778.5
403.816	704.7
403.82	629.2
403.825	611
403.83	608
403.834	609.3
403.839	608.6
403.844	608.2
403.848	610
403.853	614.3
403.857	625.6
403.862	652.2
403.867	740.4
403.871	864.6
403.876	847
403.88	713.7
403.885	649.2
403.89	625.2
403.894	616.8
403.899	626.1
403.904	668.9
403.908	888.1
403.913	1364
403.917	1595.4
403.922	1230.6
403.927	835.5
403.931	667.6
403.936	624.6
403.94	620.1
403.945	633.6
403.95	692.7
403.954	799.8
403.959	811.3
403.964	703
403.968	636.7
403.973	631.7
403.977	692.5
403.982	978.6
403.987	1524.8
403.991	1585.4
403.996	1042.6
404	717.6
404.005	696.8
404.01	731.1
404.014	697.4
404.019	639.3
404.024	624.4
404.028	637.8
404.033	657.6
404.037	680.1
404.042	679.2
404.047	651.7
404.051	629
404.056	621.1
404.06	617.8
404.065	615
404.07	615.3
404.074	614.8
404.079	617.1
404.084	618.8
404.088	620.5
404.093	619.4
404.097	621.5
404.102	623.5
404.107	620
404.111	616.4
404.116	617.6
404.12	620.7
404.125	621.3
404.13	624.8
404.134	628.4
404.139	633.7
404.144	649.7
404.148	655.5
404.153	649.8
404.157	671.4
404.162	789.3
404.167	983.7
404.171	986.9
404.176	787.5
404.18	665.8
404.185	637.1
404.19	643.6
404.194	669.9
404.199	679.6
404.204	688.7
404.208	860.3
404.213	1880
404.217	3860.7
404.222	3797
404.227	1742.6
404.231	803.2
404.236	660.4
404.24	639.2
404.245	636.6
404.25	632.7
404.254	633.8
404.259	635
404.263	645.4
404.268	674.6
404.273	718.3
404.277	844.1
404.282	979.2
404.287	912.7
404.291	732.2
404.296	652.9
404.3	636.6
404.305	643.4
404.31	673.5
404.314	772.2
404.319	857.1
404.323	798.7
404.328	711.8
404.333	698.4
404.337	695.1
404.342	698.4
404.346	828.1
404.351	1377.6
404.356	2334
404.36	2658.8
404.365	2972.7
404.37	4698.6
404.374	4428.8
404.379	1984.4
404.383	859.4
404.388	699.5
404.393	669.7
404.397	661.9
404.402	652.1
404.406	645.3
404.411	643.3
404.416	642
404.42	644.8
404.425	642.8
404.43	645.8
404.434	648.1
404.439	650.5
404.443	653.6
404.448	658.1
404.453	668
404.457	685
404.462	715.4
404.466	797.2
404.471	998.9
404.476	1934.4
404.48	6591.8
404.485	19370.9
404.489	29630.2
404.494	21246.8
404.499	7455.8
404.503	2011.7
404.508	927.1
404.513	748.6
404.517	741.4
404.522	880.4
404.526	999.2
404.531	852.3
404.536	689
404.54	652.7
404.545	644.3
404.549	638.5
404.554	638
404.559	634.4
404.563	631.1
404.568	632.4
404.572	630.1
404.577	630.1
404.582	633.5
404.586	658.5
404.591	796.7
404.595	1139.5
404.6	1361.2
404.605	1092.2
404.609	775.9
404.614	670.2
404.619	638.6
404.623	633.8
404.628	634.9
404.632	624.8
404.637	617.5
404.642	613.7
404.646	613.2
404.651	612.5
404.655	613.5
404.66	612.5
404.665	614
404.669	622.4
404.674	647.2
404.678	655.3
404.683	635.1
404.688	616.8
404.692	612.3
404.697	612.6
404.702	615.7
404.706	633.9
404.711	704
404.715	970.1
404.72	1460.3
404.725	1569.1
404.729	1107.3
404.734	741.8
404.738	670.6
404.743	666.4
404.748	649.1
404.752	645.1
404.757	690.1
404.761	724.5
404.766	686
404.771	632.8
404.775	615.5
404.78	612.4
404.784	612.1
404.789	613.3
404.794	614.4
404.798	618.4
404.803	649.9
404.807	764.1
404.812	936.4
404.817	927.4
404.821	753.9
404.826	641.9
404.831	613.1
404.835	609.8
404.84	609.7
404.844	609
404.849	609.8
404.854	610.4
404.858	609.9
404.863	609.9
404.867	610
404.872	610.5
404.877	609.7
404.881	610.3
404.886	609.8
404.89	610.9
404.895	608.7
404.9	611.5
404.904	611.2
404.909	616.6
404.913	628.3
404.918	638.5
404.923	630.7
404.927	623.2
404.932	617.7
404.936	613.6
404.941	611.5
404.946	610.8
404.95	608.8
404.955	609.7
404.96	609.4
404.964	610.6
404.969	613.3
404.973	620.2
404.978	622.1
404.983	618.4
404.987	612
404.992	609.3
404.996	610.5
405.001	610.9
405.006	611.4
405.01	611.4
405.015	618.7
405.019	632
405.024	639.2
405.029	629.3
405.033	636.8
405.038	679.2
405.042	712.3
405.047	704
405.052	732.6
405.056	835.1
405.061	878.7
405.065	768.6
405.07	659.6
405.075	625.8
405.079	619.2
405.084	615.6
405.089	613.5
405.093	611.9
405.098	611.1
405.102	610.6
405.107	611.1
405.112	613.6
405.116	614.1
405.121	613.6
405.125	613.3
405.13	614.6
405.135	615.6
405.139	615.3
405.144	616.6
405.148	619.6
405.153	637.2
405.158	673.2
405.162	685.9
405.167	658.3
405.171	632.1
405.176	623.5
405.181	623
405.185	627.7
405.19	642.9
405.194	678.3
405.199	702.7
405.204	739.6
405.208	1022.9
405.213	2658.6
405.217	6469
405.222	7682.5
405.227	4087.5
405.231	1312.1
405.236	742.9
405.24	660.3
405.245	640.3
405.25	631.2
405.254	628.9
405.259	625.8
405.263	620.7
405.268	620
405.273	618.9
405.277	620.3
405.282	624
405.286	623.1
405.291	617.5
405.296	614
405.3	613.9
405.305	620.9
405.31	662.5
405.314	823.7
405.319	1095.8
405.323	1171
405.328	908
405.333	694.1
405.337	643
405.342	640.2
405.346	629.1
405.351	616.9
405.356	613.1
405.36	610.7
405.365	611.9
405.369	621.6
405.374	675.3
405.379	781.1
405.383	787.7
405.388	684.3
405.392	621.2
405.397	611.7
405.402	615
405.406	636.1
405.411	678.4
405.415	693.9
405.42	660.4
405.425	638.7
405.429	637.4
405.434	639.6
405.438	639.1
405.443	676.3
405.448	774.4
405.452	817.4
405.457	728.6
405.461	642
405.466	615.4
405.471	611.1
405.475	607.8
405.48	610.4
405.484	624.7
405.489	649.9
405.494	661.1
405.498	640.1
405.503	618.6
405.507	613.5
405.512	611.2
405.517	606.1
405.521	606.1
405.526	605.8
405.53	607.2
405.535	609.4
405.54	617.8
405.544	636.4
405.549	633.8
405.553	620.6
405.558	609.4
405.563	611.7
405.567	623.8
405.572	639.4
405.576	639.6
405.581	621.9
405.586	612.1
405.59	609
405.595	607.8
405.599	607.4
405.604	609.3
405.609	617.6
405.613	644.4
405.618	674.1
405.622	665.9
405.627	633.1
405.632	611.7
405.636	608.1
405.641	608
405.645	609.4
405.65	609.4
405.655	612.8
405.659	628.8
405.664	685.1
405.668	796.9
405.673	881.4
405.678	806.2
405.682	679.5
405.687	627.9
405.691	621.5
405.696	616.4
405.701	610.7
405.705	607.9
405.71	607.4
405.714	607.5
405.719	609.9
405.724	617.7
405.728	622.2
405.733	618.2
405.737	609.6
405.742	606.7
405.747	605.8
405.751	605.4
405.756	606.5
405.76	604.8
405.765	606.8
405.77	605.8
405.774	605.3
405.779	605.8
405.783	605
405.788	605.9
405.793	605.6
405.797	607.2
405.802	607.5
405.806	608.4
405.811	610.5
405.816	605.8
405.82	607.3
405.825	612.5
405.829	621.6
405.834	621.7
405.839	619.1
405.843	630.5
405.848	666.8
405.852	696.4
405.857	681.7
405.862	650.2
405.866	625.7
405.871	612.4
405.875	607.6
405.88	606.7
405.885	605.9
405.889	606.3
405.894	607.1
405.898	607.2
405.903	608.2
405.908	609.7
405.912	611.4
405.917	611.8
405.921	609.9
405.926	607.2
405.931	608.3
405.935	612.1
405.94	624.4
405.944	646.9
405.949	662.5
405.953	648.3
405.958	623.2
405.963	610.9
405.967	611.9
405.972	615.5
405.976	614.4
405.981	622.3
405.986	644.7
405.99	728.3
405.995	859.1
405.999	881.8
406.004	774.4
406.009	670.9
406.013	628.8
406.018	619.1
406.022	614.6
406.027	610.8
406.032	609.2
406.036	607.1
406.041	608.9
406.045	615.3
406.05	622.6
406.055	619.7
406.059	610.9
406.064	608.3
406.068	606.3
406.073	607.5
406.078	606.2
406.082	605.8
406.087	606.4
406.091	606.1
406.096	605.7
406.101	606.7
406.105	606
406.11	604.9
406.114	606.9
406.119	606.6
406.124	605.1
406.128	607
406.133	605.6
406.137	606.3
406.142	611.1
406.147	621.4
406.151	637.4
406.156	636.7
406.16	622.6
406.165	614.1
406.169	618.1
406.174	621.3
406.179	625.9
406.183	619.6
406.188	611.9
406.192	609
406.197	608
406.202	607.4
406.206	606.3
406.211	606.5
406.215	607.8
406.22	608
406.225	606.7
406.229	605.3
406.234	605.8
406.238	611.2
406.243	621.3
406.248	633.4
406.252	629.4
406.257	618.1
406.261	609.8
406.266	610.2
406.271	618.5
406.275	626.7
406.28	628.7
406.284	623.1
406.289	616.6
406.294	611.4
406.298	607.1
406.303	608.7
406.307	606.8
406.312	607.8
406.316	607.8
406.321	608.9
406.326	611
406.33	620.6
406.335	630.2
406.339	628.3
406.344	616.2
406.349	609.7
406.353	610
406.358	610.7
406.362	612
406.367	612.5
406.372	615
406.376	633.2
406.381	665.4
406.385	683.8
406.39	680.3
406.395	802
406.399	1183.8
406.404	1609.1
406.408	1470.2
406.413	981.3
406.418	693.6
406.422	623.9
406.427	613.1
406.431	614.3
406.436	617.6
406.441	617.8
406.445	624.5
406.45	664.4
406.454	743.7
406.459	788.4
406.463	734.1
406.468	653.6
406.473	620.6
406.477	612.6
406.482	611.6
406.486	610.1
406.491	611.8
406.496	611.3
406.5	611.5
406.505	611.9
406.509	614.5
406.514	626.1
406.519	667.3
406.523	724.4
406.528	727.9
406.532	689
406.537	653.5
406.542	629.8
406.546	617.3
406.551	611.9
406.555	613.6
406.56	613.3
406.564	612.7
406.569	613
406.574	613.5
406.578	615.2
406.583	614
406.587	615.8
406.592	617.4
406.597	617.9
406.601	633.3
406.606	695.6
406.61	863.745
406.615	1072.39
406.62	1068.74
406.624	859.281
406.629	688.226
406.633	632.971
406.638	619.916
406.643	619.061
406.647	617.007
406.652	616.752
406.656	616.197
406.661	620.442
406.665	637.187
406.67	682.832
406.675	736.177
406.679	734.523
406.684	680.568
406.688	635.113
406.693	618.558
406.698	616.003
406.702	616.348
406.707	618.094
406.711	619.539
406.716	620.084
406.721	619.829
406.725	616.974
406.73	618.419
406.734	618.965
406.739	619.01
406.743	617.455
406.748	619.1
406.753	618.845
406.757	618.99
406.762	618.836
406.766	619.881
406.771	618.526
406.776	619.671
406.78	620.516
406.785	619.262
406.789	622.807
406.794	621.252
406.799	622.497
406.803	622.742
406.808	624.287
406.812	622.333
406.817	623.678
406.822	624.923
406.826	627.968
406.831	641.313
406.835	673.458
406.84	702.704
406.844	684.249
406.849	652.394
406.854	637.339
406.858	636.984
406.863	640.829
406.867	640.675
406.872	639.52
406.877	640.965
406.881	647.31
406.886	668.955
406.89	748.2
406.895	1100.65
406.9	1947.39
406.904	2844.44
406.909	3717.48
406.913	6577.33
406.918	10609.7
406.922	10289.5
406.927	5825.66
406.932	2172.41
406.936	993.352
406.941	738.697
406.945	683.042
406.95	678.688
406.955	685.733
406.959	692.978
406.964	689.523
406.968	745.968
406.973	1118.01
406.977	2397.56
406.982	4470.6
406.987	5280.65
406.991	3769.79
406.996	1815.74
407	972.484
407.005	805.33
407.01	730.775
407.014	674.92
407.019	657.665
407.023	655.51
407.028	656.555
407.033	661.101
407.037	672.146
407.042	680.791
407.046	695.136
407.051	694.181
407.055	681.126
407.06	666.572
407.065	662.017
407.069	658.562
407.074	661.707
407.078	666.552
407.083	679.397
407.088	697.243
407.092	707.988
407.097	719.933
407.101	732.278
407.106	811.423
407.111	1178.97
407.115	2520.81
407.12	5680.66
407.124	8915.3
407.129	7661.45
407.133	3811.49
407.138	1285.64
407.143	787.085
407.147	725.53
407.152	809.375
407.156	1222.72
407.161	1857.97
407.166	1926.41
407.17	1355.86
407.175	835.801
407.179	690.946
407.184	671.791
407.188	665.836
407.193	664.781
407.198	666.527
407.202	667.172
407.207	670.017
407.211	672.762
407.216	676.907
407.221	677.352
407.225	693.898
407.23	772.943
407.234	949.688
407.239	1095.33
407.243	1023.28
407.248	830.023
407.253	709.869
407.257	685.714
407.262	681.759
407.266	688.104
407.271	693.149
407.276	705.194
407.28	712.04
407.285	713.485
407.289	713.13
407.294	714.275
407.298	730.52
407.303	763.065
407.308	824.911
407.312	841.956
407.317	812.001
407.321	783.846
407.326	784.891
407.331	830.036
407.335	954.182
407.34	1388.83
407.344	3651.37
407.349	14410.6
407.353	40898.5
407.358	62377.8
407.363	62030.4
407.367	40916.3
407.372	13561.8
407.376	3318.79
407.381	1403.93
407.386	1140.18
407.39	1068.42
407.395	929.469
407.399	800.014
407.404	742.959
407.408	720.104
407.413	714.75
407.418	699.495
407.422	689.14
407.427	686.185
407.431	686.83
407.436	683.775
407.441	679.12
407.445	672.966
407.45	666.011
407.454	661.856
407.459	656.801
407.463	649.846
407.468	641.891
407.473	638.037
407.477	631.382
407.482	630.527
407.486	628.472
407.491	629.517
407.496	631.563
407.5	645.208
407.505	657.053
407.509	655.198
407.514	635.643
407.518	621.088
407.523	619.833
407.528	628.179
407.532	644.624
407.537	654.169
407.541	643.514
407.546	624.759
407.551	614.605
407.555	612.05
407.56	611.995
407.564	610.94
407.569	612.585
407.573	636.43
407.578	766.875
407.583	1031.22
407.587	1200.37
407.592	1044.21
407.596	775.456
407.601	637.701
407.605	638.147
407.61	755.692
407.615	979.037
407.619	1131.08
407.624	1082.13
407.628	916.972
407.633	772.518
407.638	670.063
407.642	619.708
407.647	606.853
407.651	604.298
407.656	603.543
407.66	603.289
407.665	603.734
407.67	603.679
407.674	602.924
407.679	601.469
407.683	601.714
407.688	602.16
407.693	600.705
407.697	601.45
407.702	600.895
407.706	601.04
407.711	599.585
407.715	603.23
407.72	611.576
407.725	655.021
407.729	751.366
407.734	851.011
407.738	848.256
407.743	742.502
407.747	645.047
407.752	608.092
407.757	599.937
407.761	597.182
407.766	599.027
407.77	599.073
407.775	598.018
407.78	597.863
407.784	600.508
407.789	609.453
407.793	620.498
407.798	623.844
407.802	616.089
407.807	609.034
407.812	604.779
407.816	604.224
407.821	606.169
407.825	605.315
407.83	603.66
407.834	604.205
407.839	619.75
407.844	656.295
407.848	689.24
407.853	679.286
407.857	647.631
407.862	638.076
407.867	682.621
407.871	863.366
407.876	1258.01
407.88	1560.26
407.885	1409.5
407.889	984.147
407.894	684.192
407.899	633.737
407.903	634.882
407.908	625.128
407.912	611.973
407.917	604.718
407.921	603.563
407.926	611.008
407.931	631.153
407.935	657.799
407.94	674.644
407.944	663.689
407.949	633.234
407.953	610.079
407.958	606.524
407.963	607.87
407.967	617.015
407.972	660.26
407.976	868.905
407.981	1415.95
407.986	2081.4
407.99	2268.54
407.995	1859.09
407.999	1207.53
408.004	800.076
408.008	648.221
408.013	617.066
408.018	610.312
408.022	603.857
408.027	600.902
408.031	598.847
408.036	598.492
408.04	605.138
408.045	628.983
408.05	657.028
408.054	662.473
408.059	640.118
408.063	612.263
408.068	598.708
408.072	595.354
408.077	594.099
408.082	594.744
408.086	594.889
408.091	597.234
408.095	600.679
408.1	601.225
408.105	599.97
408.109	596.015
408.114	596.46
408.118	603.305
408.123	614.85
408.127	622.096
408.132	617.741
408.137	606.986
408.141	600.331
408.146	610.976
408.15	707.522
408.155	986.867
408.159	1312.41
408.164	1321.16
408.169	1044.1
408.173	719.247
408.178	611.492
408.182	598.438
408.187	596.183
408.191	596.128
408.196	600.473
408.201	625.218
408.205	766.063
408.21	1292.61
408.214	2129.95
408.219	2556.3
408.223	2155.14
408.228	1341.89
408.233	800.935
408.237	652.28
408.242	612.525
408.246	599.37
408.251	594.215
408.255	594.86
408.26	595.705
408.265	600.851
408.269	613.896
408.274	641.041
408.278	690.286
408.283	759.331
408.288	846.676
408.292	903.222
408.297	857.567
408.301	742.212
408.306	639.757
408.31	613.902
408.315	626.448
408.32	641.593
408.324	641.338
408.329	628.983
408.333	611.828
408.338	601.673
408.342	594.219
408.347	592.364
408.352	590.009
408.356	587.854
408.361	588.699
408.365	588.244
408.37	588.29
408.374	589.935
408.379	589.78
408.384	589.025
408.388	586.07
408.393	586.815
408.397	585.86
408.402	586.606
408.406	587.051
408.411	586.596
408.416	587.341
408.42	586.486
408.425	588.831
408.429	593.977
408.434	610.822
408.438	637.467
408.443	652.912
408.448	641.857
408.452	622.603
408.457	603.048
408.461	597.793
408.466	594.638
408.47	590.983
408.475	588.528
408.48	588.974
408.484	588.519
408.489	589.464
408.493	590.909
408.498	592.054
408.502	592.499
408.507	591.844
408.512	587.99
408.516	587.735
408.521	587.38
408.525	586.825
408.53	587.07
408.534	586.816
408.539	586.861
408.544	586.806
408.548	590.651
408.553	594.396
408.557	597.541
408.562	594.487
408.566	591.132
408.571	587.977
408.576	588.022
408.58	589.767
408.585	588.712
408.589	588.058
408.594	586.603
408.598	587.348
408.603	586.593
408.608	591.938
408.612	597.483
408.617	600.429
408.621	598.574
408.626	593.619
408.63	588.664
408.635	588.209
408.64	586.854
408.644	590.3
408.649	600.445
408.653	625.99
408.658	658.235
408.662	664.68
408.667	639.625
408.672	610.271
408.676	595.916
408.681	590.861
408.685	594.706
408.69	599.151
408.694	602.696
408.699	602.542
408.704	599.387
408.708	598.332
408.713	598.877
408.717	600.322
408.722	602.667
408.726	602.113
408.731	615.158
408.736	696.703
408.74	1144.35
408.745	2750.49
408.749	5289.24
408.754	6763.28
408.758	5979.03
408.763	3615.67
408.768	1506.32
408.772	787.864
408.777	656.709
408.781	627.655
408.786	653.4
408.79	766.345
408.795	890.99
408.799	929.835
408.804	874.18
408.809	769.926
408.813	694.671
408.818	678.516
408.822	672.661
408.827	675.106
408.831	662.151
408.836	625.997
408.841	603.342
408.845	622.187
408.85	714.332
408.854	844.377
408.859	907.823
408.863	855.668
408.868	727.913
408.873	623.958
408.877	601.603
408.882	602.248
408.886	602.193
408.891	598.339
408.895	589.984
408.9	582.929
408.905	581.574
408.909	580.719
408.914	583.264
408.918	582.31
408.923	585.155
408.927	584.3
408.932	585.445
408.937	590.69
408.941	609.035
408.946	642.081
408.95	659.426
408.955	651.271
408.959	623.216
408.964	595.261
408.969	588.506
408.973	610.852
408.978	671.597
408.982	744.442
408.987	771.487
408.991	740.632
408.996	674.477
409	619.423
409.005	603.268
409.01	609.613
409.014	640.858
409.019	692.603
409.023	721.048
409.028	712.594
409.032	683.639
409.037	658.284
409.042	651.629
409.046	637.774
409.051	612.419
409.055	587.365
409.06	578.71
409.064	577.955
409.069	578.8
409.074	580.545
409.078	582.59
409.083	583.936
409.087	584.981
409.092	580.726
409.096	578.571
409.101	576.516
409.106	575.861
409.11	577.307
409.115	577.052
409.119	576.197
409.124	577.342
409.128	577.287
409.133	579.732
409.137	587.278
409.142	603.523
409.147	657.568
409.151	788.013
409.156	941.458
409.16	976.704
409.165	898.849
409.169	743.394
409.174	624.139
409.179	590.284
409.183	582.029
409.188	578.074
409.192	576.72
409.197	577.865
409.201	577.01
409.206	577.455
409.211	578.5
409.215	585.046
409.22	615.991
409.224	730.836
409.229	883.881
409.233	965.426
409.238	923.671
409.242	780.516
409.247	635.762
409.252	586.407
409.256	577.952
409.261	576.097
409.265	576.342
409.27	574.788
409.274	575.733
409.279	573.678
409.284	575.223
409.288	574.468
409.293	574.113
409.297	575.458
409.302	574.304
409.306	575.449
409.311	573.594
409.315	573.539
409.32	573.484
409.325	574.93
409.329	577.675
409.334	580.92
409.338	581.165
409.343	580.31
409.347	576.455
409.352	575.501
409.357	574.846
409.361	575.791
409.366	577.736
409.37	578.881
409.375	577.526
409.379	575.872
409.384	575.117
409.389	576.162
409.393	577.507
409.398	575.152
409.402	575.897
409.407	577.043
409.411	577.288
409.416	575.833
409.42	576.078
409.425	575.223
409.43	575.468
409.434	575.813
409.439	575.659
409.443	576.104
409.448	577.949
409.452	585.094
409.457	594.439
409.462	599.384
409.466	600.93
409.471	613.675
409.475	703.12
409.48	1031.47
409.484	1516.21
409.489	1766.86
409.493	1655.1
409.498	1258.35
409.503	808.191
409.507	627.536
409.512	606.281
409.516	610.827
409.521	615.072
409.525	610.417
409.53	596.162
409.535	584.807
409.539	578.352
409.544	578.098
409.548	586.443
409.553	612.088
409.557	642.133
409.562	653.378
409.566	675.023
409.571	678.069
409.576	604.614
409.58	595.259
409.585	611.904
409.589	631.449
409.594	639.894
409.598	631.84
409.603	609.085
409.607	585.93
409.612	576.875
409.617	583.72
409.621	629.565
409.626	749.311
409.63	880.956
409.635	936.201
409.639	904.346
409.644	798.091
409.649	721.036
409.653	683.082
409.658	658.627
409.662	633.172
409.667	602.417
409.671	606.862
409.676	664.507
409.68	757.753
409.685	804.598
409.69	790.943
409.694	733.288
409.699	661.633
409.703	641.378
409.708	640.924
409.712	634.669
409.717	636.814
409.721	630.759
409.726	621.204
409.731	606.049
409.735	589.895
409.74	578.54
409.744	574.685
409.749	572.53
409.753	573.075
409.758	580.32
409.763	592.866
409.767	597.111
409.772	598.456
409.776	594.901
409.781	589.246
409.785	586.191
409.79	584.137
409.794	580.982
409.799	583.027
409.804	594.272
409.808	656.417
409.813	801.662
409.817	942.008
409.822	971.353
409.826	906.598
409.831	756.243
409.835	624.988
409.84	583.733
409.845	574.979
409.849	576.624
409.854	592.269
409.858	622.214
409.863	638.359
409.867	637.604
409.872	620.95
409.876	593.195
409.881	577.64
409.886	573.985
409.89	574.83
409.895	575.275
409.899	573.821
409.904	574.066
409.908	572.811
409.913	572.956
409.918	574.601
409.922	574.946
409.927	573.192
409.931	574.337
409.936	574.082
409.94	577.427
409.945	584.672
409.949	590.718
409.954	590.963
409.959	587.408
409.963	578.753
409.968	575.098
409.972	575.843
409.977	574.688
409.981	575.034
409.986	576.179
409.99	581.424
409.995	602.269
410	645.514
410.004	681.659
410.009	699.005
410.013	697.25
410.018	664.795
410.022	623.14
410.027	604.385
410.031	588.23
410.036	578.276
410.041	577.421
410.045	577.266
410.05	578.311
410.054	579.656
410.059	585.801
410.063	599.447
410.068	613.392
410.072	632.337
410.077	658.082
410.082	668.927
410.086	691.672
410.091	816.218
410.095	1102.76
410.1	1340.11
410.104	1354.15
410.109	1225.7
410.113	928.243
410.118	675.189
410.123	604.134
410.127	593.279
410.132	590.124
410.136	590.069
410.141	591.414
410.145	594.16
410.15	601.805
410.154	608.85
410.159	612.695
410.164	635.64
410.168	763.486
410.173	1465.83
410.177	3797.18
410.182	7358.12
410.186	9337.67
410.191	9109.71
410.195	7074.16
410.2	3658.5
410.205	1592.25
410.209	1086.89
410.214	966.137
410.218	899.582
410.223	823.728
410.227	749.973
410.232	713.818
410.236	681.463
410.241	634.608
410.246	609.515
410.25	607.278
410.255	607.781
410.259	607.989
410.264	604.851
410.268	602.985
410.273	601.426
410.277	600.287
410.282	606.695
410.287	658.027
410.291	844.004
410.296	1165.98
410.3	1521.91
410.305	1874.73
410.309	2205.74
410.314	2579.38
410.318	2761.94
410.323	2367.09
410.328	1525.84
410.332	884.449
410.337	681.457
410.341	639.739
410.346	625.795
410.35	622.375
410.353	622.785
410.357	627.875
410.362	632.266
410.366	627.656
410.371	619.047
410.376	615.337
410.38	613.728
410.385	613.318
410.389	612.709
410.394	612.899
410.399	613.29
410.403	611.98
410.408	610.271
410.412	612.061
410.417	611.552
410.422	610.142
410.426	611.332
410.431	610.623
410.435	611.813
410.44	615.304
410.445	616.694
410.449	615.285
410.454	612.875
410.458	615.366
410.463	617.456
410.468	618.447
410.472	614.037
410.477	613.028
410.481	612.618
410.486	612.509
410.491	616.299
410.495	620.589
410.5	619.78
410.504	615.171
410.509	611.661
410.514	610.451
410.518	610.442
410.523	610.132
410.527	609.623
410.532	609.313
410.537	609.904
410.541	609.894
410.546	610.185
410.55	610.675
410.555	611.766
410.56	610.456
410.564	610.747
410.569	610.637
410.573	610.328
410.578	611.618
410.583	612.809
410.587	623.599
410.592	658.19
410.596	726.58
410.601	747.371
410.606	682.961
410.61	637.351
410.615	624.842
410.619	623.832
410.624	630.223
410.629	626.713
410.633	618.404
410.638	611.594
410.642	614.485
410.647	620.575
410.652	630.766
410.656	629.956
410.661	619.147
410.665	612.337
410.67	610.428
410.674	610.718
410.679	610.309
410.684	611.399
410.688	613.39
410.693	618.38
410.698	629.67
410.702	668.461
410.707	765.552
410.711	856.142
410.716	809.832
410.72	702.723
410.725	645.813
410.73	631.704
410.734	631.494
410.739	628.985
410.743	620.375
410.748	615.166
410.753	612.856
410.757	613.947
410.762	616.537
410.766	631.328
410.771	661.218
410.776	752.509
410.78	885.099
410.785	871.79
410.789	725.68
410.794	640.971
410.799	617.561
410.803	613.552
410.808	612.842
410.812	612.232
410.817	613.823
410.822	612.613
410.826	612.004
410.831	613.594
410.835	612.585
410.84	612.675
410.845	607.266
410.849	612.656
410.854	612.747
410.858	614.637
410.863	618.828
410.868	622.918
410.872	621.009
410.877	620.499
410.881	625.69
410.886	641.08
410.891	701.871
410.895	936.661
410.9	1511.45
410.904	1858.34
410.909	1422.23
410.914	862.623
410.918	667.313
410.923	629.204
410.927	629.794
410.932	631.285
410.937	623.775
410.941	617.366
410.946	614.956
410.95	615.047
410.955	614.137
410.96	613.728
410.964	615.618
410.969	620.509
410.973	638.499
410.978	693.49
410.982	801.38
410.987	835.97
410.992	728.261
410.996	647.652
411.001	623.342
411.005	617.033
411.01	613.823
411.015	612.813
411.019	613.004
411.024	612.894
411.028	613.685
411.033	614.675
411.038	613.566
411.042	613.556
411.047	614.947
411.051	616.237
411.056	615.628
411.061	615.918
411.065	617.409
411.07	619.399
411.074	622.19
411.079	628.08
411.084	650.471
411.088	738.761
411.093	937.252
411.097	1298.94
411.102	2551.93
411.107	5362.82
411.111	6508.41
411.116	3906.9
411.12	1523.69
411.125	804.685
411.129	664.375
411.134	640.366
411.139	640.156
411.143	634.847
411.148	622.337
411.152	616.528
411.157	618.418
411.162	622.509
411.166	641.899
411.171	716.89
411.175	809.38
411.18	790.471
411.185	691.961
411.189	632.452
411.194	619.442
411.198	628.432
411.203	689.823
411.208	823.013
411.212	841.604
411.217	700.394
411.221	632.185
411.226	619.775
411.231	622.766
411.235	623.456
411.24	617.847
411.244	612.037
411.249	612.428
411.254	616.618
411.258	615.809
411.263	611.899
411.267	610.09
411.272	609.08
411.276	609.371
411.281	610.561
411.286	608.452
411.29	608.242
411.295	608.932
411.299	610.023
411.304	609.714
411.309	610.104
411.313	609.594
411.318	612.485
411.322	619.375
411.327	630.066
411.332	631.856
411.336	621.347
411.341	620.937
411.345	626.728
411.35	624.918
411.355	618.809
411.359	617.699
411.364	616.29
411.368	614.18
411.373	620.471
411.378	625.661
411.382	619.552
411.387	614.342
411.391	616.933
411.396	637.523
411.4	717.213
411.405	953.004
411.41	1178.69
411.414	1049.79
411.419	766.875
411.423	644.466
411.428	616.756
411.433	611.247
411.437	611.037
411.442	610.328
411.446	609.318
411.451	609.209
411.456	611.799
411.46	610.79
411.465	612.88
411.469	617.371
411.474	640.761
411.478	734.752
411.483	948.242
411.488	1025.73
411.492	837.123
411.497	666.614
411.501	620.404
411.506	610.794
411.511	610.085
411.515	609.775
411.52	612.166
411.524	615.156
411.529	627.147
411.534	645.837
411.538	647.528
411.543	630.618
411.547	621.709
411.552	617.599
411.557	620.49
411.561	636.78
411.566	651.671
411.57	635.361
411.575	616.152
411.579	610.942
411.584	608.833
411.589	613.523
411.593	617.214
411.598	616.304
411.602	613.994
411.607	609.885
411.612	611.075
411.616	612.266
411.621	620.256
411.625	627.947
411.63	623.037
411.635	612.328
411.639	611.318
411.644	612.509
411.648	623.499
411.653	635.69
411.658	637.58
411.662	620.971
411.667	611.961
411.671	609.951
411.676	610.342
411.68	612.633
411.685	615.423
411.69	616.714
411.694	615.104
411.699	615.194
411.703	615.885
411.708	618.076
411.713	621.666
411.717	642.556
411.722	736.447
411.726	1111.34
411.731	1761.93
411.736	1979.32
411.74	2192.41
411.745	2968.7
411.749	2625.99
411.754	1410.48
411.758	814.071
411.763	661.161
411.768	642.652
411.772	640.242
411.777	631.533
411.781	636.423
411.786	659.814
411.791	661.304
411.795	631.194
411.8	617.785
411.804	614.375
411.809	624.366
411.813	668.056
411.818	829.447
411.823	1118.24
411.827	1173.93
411.832	878.218
411.836	678.509
411.841	622.499
411.846	614.09
411.85	615.58
411.855	628.571
411.859	633.161
411.864	621.052
411.869	612.542
411.873	613.633
411.878	618.823
411.882	618.614
411.887	615.004
411.891	616.094
411.896	618.585
411.901	615.875
411.905	614.366
411.91	622.257
411.914	637.447
411.919	631.537
411.924	615.128
411.928	610.118
411.933	608.209
411.937	610.999
411.942	623.79
411.947	643.58
411.951	646.471
411.956	625.261
411.96	611.552
411.965	609.342
411.969	610.533
411.974	613.423
411.979	617.314
411.983	617.204
411.988	616.795
411.992	620.485
411.997	629.775
412.002	661.466
412.006	791.556
412.011	1008.35
412.015	1018.14
412.02	807.828
412.024	690.318
412.029	686.509
412.034	701.599
412.038	666.39
412.043	623.38
412.047	608.871
412.052	609.961
412.057	608.252
412.061	608.442
412.066	608.133
412.07	608.323
412.075	607.614
412.079	611.004
412.084	615.094
412.089	614.985
412.093	610.375
412.098	607.466
412.102	609.957
412.107	612.247
412.112	616.837
412.116	634.328
412.121	709.018
412.125	876.909
412.13	948.099
412.134	795.69
412.139	657.68
412.144	616.071
412.148	607.861
412.153	606.552
412.157	606.242
412.162	607.133
412.167	607.823
412.171	607.814
412.176	607.704
412.18	607.695
412.185	606.785
412.19	607.875
412.194	611.566
412.199	612.956
412.203	609.347
412.208	610.537
412.212	611.028
412.217	618.718
412.222	653.209
412.226	788.099
412.231	971.59
412.235	943.18
412.24	740.171
412.245	633.861
412.249	611.452
412.254	608.342
412.258	608.033
412.263	606.623
412.267	606.614
412.272	610.404
412.277	620.495
412.281	656.485
412.286	699.276
412.29	687.766
412.295	637.757
412.299	613.747
412.304	610.337
412.309	614.228
412.313	618.218
412.318	615.609
412.322	610.599
412.327	607.39
412.332	610.68
412.336	616.271
412.341	627.561
412.345	631.252
412.35	616.442
412.354	608.633
412.359	606.923
412.364	607.914
412.368	610.504
412.373	609.495
412.377	607.785
412.382	607.276
412.387	606.766
412.391	605.956
412.396	606.947
412.4	606.438
412.405	606.828
412.409	607.318
412.414	607.609
412.419	608.799
412.423	613.79
412.428	628.78
412.432	689.171
412.437	917.861
412.442	1355.85
412.446	1444.14
412.451	1106.43
412.455	1008.62
412.46	1008.21
412.464	826.004
412.469	664.995
412.474	617.785
412.478	612.776
412.483	616.966
412.487	630.957
412.492	649.147
412.497	651.437
412.501	640.528
412.506	621.418
412.51	610.409
412.515	606.899
412.519	606.29
412.524	606.08
412.529	605.871
412.533	606.961
412.538	608.052
412.542	609.842
412.547	607.533
412.551	607.423
412.556	608.514
412.561	610.604
412.565	610.295
412.57	609.985
412.574	610.876
412.579	610.166
412.584	611.356
412.588	624.247
412.593	661.037
412.597	834.928
412.602	1371.52
412.606	1789.61
412.611	1411.5
412.616	840.39
412.62	661.08
412.625	640.771
412.629	630.261
412.634	618.652
412.639	617.842
412.643	641.633
412.648	707.523
412.652	746.414
412.657	690.804
412.661	630.495
412.666	613.985
412.671	608.476
412.675	608.366
412.68	609.757
412.684	613.447
412.689	618.737
412.693	629.728
412.698	648.818
412.703	650.609
412.707	633.099
412.712	624.59
412.716	629.18
412.721	641.071
412.726	634.561
412.73	616.952
412.735	612.142
412.739	610.933
412.744	609.723
412.748	608.914
412.753	608.904
412.758	610.395
412.762	610.985
412.767	613.876
412.771	614.266
412.776	616.456
412.78	633.347
412.785	726.537
412.79	835.328
412.794	778.318
412.799	655.409
412.803	619.899
412.808	612.39
412.813	611.48
412.817	610.971
412.822	611.861
412.826	613.852
412.831	615.642
412.835	617.633
412.84	615.323
412.845	613.414
412.849	616.104
412.854	619.795
412.858	624.585
412.863	628.676
412.867	622.266
412.872	614.456
412.877	611.847
412.881	615.238
412.886	629.128
412.89	679.218
412.895	714.609
412.899	681.999
412.904	650.09
412.909	670.88
412.913	704.471
412.918	758.561
412.922	853.952
412.927	840.042
412.932	700.333
412.936	632.323
412.941	614.814
412.945	612.704
412.95	613.095
412.954	615.585
412.959	617.976
412.964	619.466
412.968	617.357
412.973	615.247
412.977	623.537
412.982	627.928
412.986	629.119
412.991	630.109
412.996	628.699
413	619.49
413.005	615.08
413.009	613.971
413.014	613.961
413.018	617.452
413.023	617.142
413.028	618.433
413.032	618.623
413.037	618.714
413.041	618.004
413.046	621.495
413.05	621.385
413.055	624.576
413.06	630.866
413.064	643.057
413.069	658.847
413.073	666.937
413.078	683.428
413.083	803.118
413.087	1495.21
413.092	5468.5
413.096	13221.9
413.101	12787.8
413.105	4678.97
413.11	1227.26
413.115	733.052
413.119	671.042
413.124	656.633
413.128	644.523
413.133	642.314
413.137	681.104
413.142	811.295
413.147	921.785
413.151	825.976
413.156	680.866
413.16	640.156
413.165	683.047
413.169	814.838
413.174	891.728
413.179	778.719
413.183	660.509
413.188	623.599
413.192	613.89
413.197	611.88
413.201	610.071
413.206	611.961
413.211	614.652
413.215	628.542
413.22	638.033
413.224	629.323
413.229	617.814
413.233	620.604
413.238	637.295
413.243	643.885
413.247	629.475
413.252	629.566
413.256	678.957
413.261	805.747
413.266	921.837
413.27	991.128
413.275	977.418
413.279	799.909
413.284	659.3
413.288	617.69
413.293	612.68
413.298	611.571
413.302	610.761
413.307	607.952
413.311	608.842
413.316	609.733
413.32	612.123
413.325	613.314
413.33	613.104
413.334	614.095
413.339	615.585
413.343	617.176
413.348	611.966
413.352	609.057
413.357	608.347
413.362	607.938
413.366	611.428
413.371	624.619
413.375	644.909
413.38	664.499
413.384	671.09
413.389	653.68
413.394	630.171
413.398	624.161
413.403	635.352
413.407	634.242
413.412	617.933
413.416	609.123
413.421	608.014
413.426	607.904
413.43	608.395
413.435	609.385
413.439	608.376
413.444	607.666
413.448	607.457
413.453	608.247
413.458	608.338
413.462	608.528
413.467	609.618
413.471	613.309
413.476	625.399
413.48	651.49
413.485	664.38
413.49	661.071
413.494	650.161
413.499	632.252
413.503	615.542
413.508	611.733
413.512	609.223
413.517	609.214
413.522	609.304
413.526	613.995
413.531	617.385
413.535	614.376
413.54	612.766
413.544	614.557
413.549	638.247
413.554	719.038
413.558	836.728
413.563	822.618
413.567	704.909
413.572	658.299
413.576	684.59
413.581	698.38
413.586	659.271
413.59	624.461
413.595	614.452
413.599	616.842
413.604	617.633
413.608	616.823
413.613	614.114
413.618	613.804
413.622	615.595
413.627	618.285
413.631	625.876
413.636	637.666
413.64	645.957
413.645	652.947
413.65	687.038
413.654	896.128
413.659	1856.42
413.663	4425.81
413.668	7648.5
413.672	7791.29
413.677	4346.48
413.682	1646.07
413.686	866.562
413.691	699.652
413.695	649.742
413.7	632.033
413.704	632.123
413.709	644.514
413.714	694.204
413.718	933.695
413.723	1571.39
413.727	1994.68
413.732	1494.37
413.736	888.557
413.741	727.747
413.745	840.338
413.75	1164.23
413.755	1389.02
413.759	1123.41
413.764	761.6
413.768	639.29
413.773	621.18
413.777	625.171
413.782	625.361
413.787	620.952
413.791	620.842
413.796	615.733
413.8	609.423
413.805	608.214
413.809	605.704
413.814	606.495
413.819	606.285
413.823	604.676
413.828	604.766
413.832	604.557
413.837	607.247
413.841	612.838
413.846	631.528
413.851	699.919
413.855	777.109
413.86	758.799
413.864	670.29
413.869	617.68
413.873	607.271
413.878	604.261
413.883	603.852
413.887	603.242
413.892	604.333
413.896	604.223
413.901	604.614
413.905	606.304
413.91	613.895
413.914	623.385
413.919	653.276
413.924	727.566
413.928	780.857
413.933	727.547
413.937	655.538
413.942	635.728
413.946	625.419
413.951	623.709
413.956	673
413.96	808.09
413.965	909.68
413.969	812.871
413.974	670.561
413.978	616.952
413.983	604.342
413.988	606.533
413.992	611.123
413.997	627.714
